350	900.09845
350.0527	897.047
350.10541	895.58136
350.15811	896.42572
350.21082	897.07123
350.26352	888.38513
350.31619	892.69659
350.3689	895.26666
350.4216	898.44006
350.4743	893.90692
350.52701	896.341
350.57971	893.23486
350.63242	898.57349
350.68512	893.08282
350.73782	896.0144
350.79053	896.29926
350.8432	900.25568
350.8959	897.03119
350.94861	898.49451
351.00131	895.08734
351.05402	900.36163
351.10672	897.14197
351.15942	895.34375
351.21213	898.35449
351.26483	897.81384
351.31754	899.40625
351.37021	896.27875
351.42291	892.34662
351.47562	894.9873
351.52832	895.50134
351.58102	897.31958
351.63373	891.74823
351.68643	897.20288
351.73914	898.68536
351.79184	894.44495
351.84454	895.0708
351.89725	893.79138
351.94992	893.95575
352.00262	892.56982
352.05533	891.87042
352.10803	897.54401
352.16074	894.50885
352.21344	895.96082
352.26614	892.53998
352.31885	898.47797
352.37155	899.89886
352.42426	896.87537
352.47693	892.57678
352.52963	895.74036
352.58234	893.64465
352.63504	894.79187
352.68774	897.5849
352.74045	897.198
352.79315	897.34454
352.84586	897.37097
352.89856	894.81061
352.95126	895.73969
353.00397	901.08319
353.05664	896.33002
353.10934	895.18225
353.16205	898.25
353.21475	897.1377
353.26746	897.87476
353.32016	897.34094
353.37286	898.49786
353.42557	898.2851
353.47827	895.66919
353.53098	893.62799
353.58365	895.53174
353.63635	897.82764
353.68906	895.75745
353.74176	895.55518
353.79446	897.8913
353.84717	897.07867
353.89987	895.5343
353.95258	893.7655
354.00528	894.52869
354.05798	896.76343
354.11066	896.23645
354.16336	896.39996
354.21606	900.37323
354.26877	901.37982
354.32147	896.35065
354.37418	892.953
354.42688	894.08374
354.47958	895.5791
354.53229	895.58984
354.58499	894.61511
354.6377	895.37048
354.69037	897.90021
354.74307	895.86066
354.79578	895.15674
354.84848	899.58765
354.90118	899.63995
354.95389	896.48041
355.00659	894.65912
355.0593	896.33948
355.112	898.09424
355.1647	896.89178
355.21738	895.68719
355.27008	895.92065
355.32278	896.7467
355.37549	897.89246
355.42819	894.2345
355.4809	894.94617
355.5336	898.14276
355.5863	898.39819
355.63901	896.77905
355.69171	898.10541
355.74442	897.86377
355.79709	897.12018
355.84979	896.76294
355.9025	896.20343
355.9552	896.02844
356.0079	899.45892
356.06061	895.13641
356.11331	892.87164
356.16602	896.7309
356.21872	896.17035
356.27142	897.38989
356.3241	900.89288
356.3768	896.57635
356.4295	898.10852
356.48221	894.69922
356.53491	900.2309
356.58762	900.14648
356.64032	898.88525
356.69302	899.78735
356.74573	895.56641
356.79843	898.21448
356.8511	904.69788
356.90381	896.539
356.95651	894.51312
357.00922	893.25458
357.06192	896.96704
357.11462	898.31458
357.16733	895.2215
357.22003	897.92963
357.27274	901.1488
357.32544	897.46466
357.37814	895.92212
357.43082	893.91187
357.48352	891.88983
357.53622	892.21722
357.58893	895.96429
357.64163	899.36676
357.69434	895.87726
357.74704	895.6001
357.79974	894.74927
357.85245	892.47168
357.90515	899.16766
357.95782	899.49451
358.01053	894.99127
358.06323	898.51581
358.11594	904.30756
358.16864	896.65015
358.22134	896.15454
358.27405	896.40308
358.32675	896.65247
358.37946	898.61414
358.43216	897.6864
358.48486	895.48737
358.53754	897.3266
358.59024	897.41113
358.64294	889.38055
358.69565	899.2309
358.74835	899.21552
358.80106	895.46661
358.85376	897.00146
358.90646	898.76184
358.95917	897.33563
359.01187	895.5979
359.06454	898.7616
359.11725	898.06555
359.16995	895.28925
359.22266	892.74536
359.27536	897.61029
359.32806	900.78455
359.38077	902.24066
359.43347	893.55902
359.48618	895.49042
359.53888	901.58264
359.59155	900.61835
359.64426	896.70514
359.69696	895.32385
359.74966	897.59863
359.80237	897.58575
359.85507	891.89343
359.90778	895.9339
359.96048	899.57831
360.01318	902.11847
360.06589	899.43567
360.11859	899.19934
360.17126	896.24438
360.22397	897.05725
360.27667	893.44403
360.32938	894.32532
360.38208	896.64801
360.43478	896.29694
360.48749	898.97778
360.54019	896.48987
360.5929	894.24963
360.6456	896.37848
360.69827	897.27985
360.75098	895.16119
360.80368	894.70911
360.85638	898.62616
360.90909	899.29883
360.96179	899.52515
361.0145	895.74323
361.0672	894.90326
361.1199	898.40961
361.17261	895.71735
361.22531	894.76746
361.27798	898.33038
361.33069	898.89716
361.38339	897.91327
361.4361	897.86505
361.4888	899
361.5415	896.6521
361.59421	895.33533
361.64691	898.11182
361.69962	901.41541
361.75232	901.04663
361.80499	897.37677
361.8577	896.15607
361.9104	897.53387
361.9631	896.09436
362.01581	895.14838
362.06851	896.49823
362.12122	897.10748
362.17392	897.73773
362.22662	896.60114
362.27933	897.58167
362.332	898.88904
362.3847	896.63995
362.43741	895.37811
362.49011	897.68646
362.54282	899.23071
362.59552	896.80194
362.64822	896.32745
362.70093	896.74017
362.75363	899.26135
362.80634	900.54755
362.85904	896.07587
362.91171	897.16663
362.96442	899.24872
363.01712	894.18195
363.06982	893.2981
363.12253	895.03119
363.17523	897.38788
363.22794	896.37451
363.28064	893.8454
363.33334	896.12976
363.38605	901.84613
363.43872	904.0741
363.49142	901.24182
363.54413	899.80658
363.59683	898.77014
363.64954	899.9256
363.70224	899.66797
363.75494	900.51044
363.80765	899.33167
363.86035	896.83954
363.91306	896.55988
363.96576	896.99469
364.01843	900.73285
364.07114	901.33752
364.12384	899.08844
364.17654	893.5835
364.22925	896.6322
364.28195	898.11249
364.33466	895.90143
364.38736	897.27002
364.44006	898.98944
364.49277	900.37823
364.54544	895.25488
364.59814	896.58417
364.65085	899.17926
364.70355	901.159
364.75626	899.83099
364.80896	900.0307
364.86166	900.61011
364.91437	902.2381
364.96707	898.28583
365.01978	895.51044
365.07245	893.66937
365.12515	897.15387
365.17786	899.27374
365.23056	899.85956
365.28326	896.25757
365.33597	897.61047
365.38867	898.24127
365.44138	899.98792
365.49408	902.6496
365.54678	899.36176
365.59949	895.77191
365.65216	895.0448
365.70486	907.26807
365.75757	899.52185
365.81027	894.29999
365.86298	895.04138
365.91568	903.45929
365.96838	901.92688
366.02109	896.91266
366.07379	898.56909
366.1265	898.617
366.17917	895.03479
366.23187	894.68414
366.28458	897.78436
366.33728	897.08044
366.38998	897.77374
366.44269	896.08929
366.49539	897.83508
366.5481	900.04852
366.6008	896.07275
366.6535	891.60107
366.70621	897.73279
366.75888	897.57306
366.81158	904.14941
366.86429	894.38763
366.91699	898.64661
366.9697	902.17316
367.0224	899.94427
367.0751	896.27759
367.12781	900.77789
367.18051	902.01105
367.23322	895.11047
367.28589	899.42474
367.33859	896.1601
367.3913	894.91888
367.444	896.1908
367.4967	900.15924
367.54941	897.6759
367.60211	898.22321
367.65482	900.32227
367.70752	895.97858
367.76022	896.86334
367.8129	899.03735
367.8656	900.19983
367.9183	899.27167
367.97101	900.79016
368.02371	907.84021
368.07642	901.75995
368.12912	895.97437
368.18182	894.26904
368.23453	898.81897
368.28723	898.01257
368.33994	896.18152
368.39261	897.65942
368.44531	896.70294
368.49802	898.13672
368.55072	899.58722
368.60342	896.33545
368.65613	900.78998
368.70883	901.0069
368.76154	900.22406
368.81424	897.06885
368.86694	897.24036
368.91962	892.93048
368.97232	899.90875
369.02502	899.6449
369.07773	899.6449
369.13043	899.6449
369.18314	921.21045
369.23584	899.83179
369.28854	901.53748
369.34125	900.00317
369.39395	898.76929
369.44666	899.31378
369.49933	899.27661
369.55203	899.29272
369.60474	900.55859
369.65744	895.91364
369.71014	897.7085
369.76285	901.52911
369.81555	902.04901
369.86826	902.52838
369.92096	901.42786
369.97366	903.34882
370.02634	899.64661
370.07904	898.047
370.13174	902.31183
370.18445	898.35687
370.23715	898.61926
370.28986	900.98419
370.34256	898.78058
370.39526	898.73065
370.44797	898.8999
370.50067	897.21783
370.55334	900.16718
370.60605	903.61139
370.65875	900.86646
370.71146	899.66467
370.76416	898.54755
370.81686	898.83575
370.86957	901.22058
370.92227	902.71375
370.97498	900.70715
371.02768	899.46674
371.08038	898.94952
371.13306	897.39093
371.18576	898.31763
371.23846	898.50793
371.29117	899.04962
371.34387	900.15552
371.39658	900.90039
371.44928	900.80304
371.50198	898.07977
371.55469	897.49231
371.60739	900.44476
371.66006	901.82458
371.71277	899.07074
371.76547	895.74481
371.81818	898.5318
371.87088	903.84143
371.92358	901.99939
371.97629	901.08557
372.02899	901.67285
372.0817	897.99164
372.1344	897.20959
372.1871	897.76074
372.23978	900.26855
372.29248	900.94885
372.34518	899.27655
372.39789	900.72241
372.45059	902.08746
372.5033	900.40222
372.556	900.52081
372.6087	902.96448
372.66141	902.31256
372.71411	899.88062
372.76678	897.8443
372.81949	897.72437
372.87219	901.46503
372.9249	902.69775
372.9776	901.04419
373.0303	895.6709
373.08301	895.27026
373.13571	899.6048
373.18842	900.26483
373.24112	900.30707
373.29379	899.64832
373.3465	901.50293
373.3992	901.13483
373.4519	899.29315
373.50461	902.75073
373.55731	905.75366
373.61002	900.80829
373.66272	899.75531
373.71542	898.97742
373.76813	900.96497
373.82083	901.12836
373.8735	905.84808
373.92621	901.82916
373.97891	901.39484
374.03162	901.39099
374.08432	901.48065
374.13702	900.42889
374.18973	902.47705
374.24243	904.49298
374.29514	903.81427
374.34784	898.93048
374.40051	902.30762
374.45322	902.2807
374.50592	904.36713
374.55862	904.45685
374.61133	906.18298
374.66403	904.41205
374.71674	901.8808
374.76944	902.26538
374.82214	907.08856
374.87485	911.47284
374.92755	905.82666
374.98022	903.06506
375.03293	906.45581
375.08563	908.02368
375.13834	910.22992
375.19104	913.05743
375.24374	912.48267
375.29645	914.66809
375.34915	907.4834
375.40186	908.44122
375.45456	914.91327
375.50723	910.21204
375.55994	908.43414
375.61264	912.48956
375.66534	915.00287
375.71805	916.92108
375.77075	911.45758
375.82346	913.80389
375.87616	914.74426
375.92886	917.79932
375.98157	917.6925
376.03424	907.59039
376.08694	920.17468
376.13965	923.20239
376.19235	926.41431
376.24506	920.36072
376.29776	927.99158
376.35046	927.8598
376.40317	930.88794
376.45587	935.22009
376.50858	942.92224
376.56128	939.16437
376.61395	934.06592
376.66666	938.52112
376.71936	940.02649
376.77206	944.00885
376.82477	944.50922
376.87747	932.38324
376.93018	947.79443
376.98288	947.76947
377.03558	943.12634
377.08829	938.88312
377.14096	934.65393
377.19366	937.16797
377.24637	943.50476
377.29907	939.71405
377.35178	943.08405
377.40448	948.00183
377.45718	950.62677
377.50989	943.51306
377.56259	947.68793
377.6153	942.2254
377.668	939.00714
377.72067	933.49493
377.77338	935.08838
377.82608	934.59833
377.87878	930.45477
377.93149	925.30048
377.98419	926.13
378.0369	931.19489
378.0896	928.00983
378.1423	923.55707
378.19501	923.03815
378.24768	919.97424
378.30038	918.01575
378.35309	913.45654
378.40579	917.53778
378.4585	920.65338
378.5112	911.64941
378.5639	910.04523
378.61661	914.06189
378.66931	913.74573
378.72202	909.57196
378.77469	908.79926
378.82739	914.80591
378.8801	917.08167
378.9328	918.12256
378.9855	914.22528
379.03821	922.22992
379.09091	921.27795
379.14362	917.54419
379.19632	919.00372
379.24902	923.33221
379.30173	923.1239
379.3544	929.69043
379.4071	924.91278
379.45981	938.62445
379.51251	928.16376
379.56522	928.43134
379.61792	927.51971
379.67062	925.29419
379.72333	926.52087
379.77603	924.6214
379.82874	920.0752
379.88141	914.91046
379.93411	917.46027
379.98682	911.45654
380.03952	912.85242
380.09222	911.22888
380.14493	908.08374
380.19763	903.00525
380.25034	903.83411
380.30304	905.36273
380.35574	908.05756
380.40845	910.66437
380.46112	902.40448
380.51382	905.54523
380.56653	909.62201
380.61923	909.22467
380.67194	913.96558
380.72464	917.69647
380.77734	915.63306
380.83005	915.85138
380.88275	917.25812
380.93546	925.55994
380.98813	927.61188
381.04083	930.20233
381.09354	931.7677
381.14624	933.86395
381.19894	937.0285
381.25165	933.13312
381.30435	934.48578
381.35706	936.84894
381.40976	934.33478
381.46246	931.13251
381.51514	922.18671
381.56784	917.50726
381.62054	921.74304
381.67325	915.2132
381.72595	909.50739
381.77866	911.11066
381.83136	912.40698
381.88406	910.97589
381.93677	908.97485
381.98947	911.14594
382.04218	916.75293
382.09485	912.12976
382.14755	908.58881
382.20026	920.42993
382.25296	920.14038
382.30566	910.76819
382.35837	911.02673
382.41107	913.39728
382.46378	913.89636
382.51648	913.43549
382.56918	913.14459
382.62186	913.23804
382.67456	912.98999
382.72726	913.40894
382.77997	916.2605
382.83267	919.03522
382.88538	914.14233
382.93808	907.83264
382.99078	904.69849
383.04349	904.41534
383.09619	905.50171
383.1489	903.24323
383.20157	902.01019
383.25427	904.99622
383.30698	905.0437
383.35968	900.31293
383.41238	902.13983
383.46509	906.1571
383.51779	905.40106
383.5705	902.76624
383.6232	901.20276
383.6759	903.44586
383.72858	903.94824
383.78128	902.2243
383.83398	900.68939
383.88669	901.39502
383.93939	901.77325
383.9921	899.17145
384.0448	899.53375
384.0975	903.22028
384.15021	904.13959
384.20291	902.82928
384.25558	900.9032
384.30829	899.43756
384.36099	901.21167
384.4137	902.23932
384.4664	900.82886
384.5191	899.55688
384.57181	899.00287
384.62451	896.99646
384.67722	896.61743
384.72992	900.25806
384.78262	903.98553
384.8353	903.94098
384.888	899.40112
384.9407	899.49615
384.99341	901.36816
385.04611	904.28284
385.09882	899.021
385.15152	897.92188
385.20422	901.71417
385.25693	899.55933
385.30963	898.88672
385.3623	903.88873
385.41501	905.04053
385.46771	901.02838
385.52042	900.81171
385.57312	899.43774
385.62582	900.01611
385.67853	900.60345
385.73123	900.51453
385.78394	899.01459
385.83664	899.93048
385.88934	898.8161
385.94202	897.20081
385.99472	901.17633
386.04742	902.55322
386.10013	903.81787
386.15283	902.13342
386.20554	900.60449
386.25824	899.06976
386.31094	899.12433
386.36365	897.41632
386.41635	898.23798
386.46902	899.66809
386.52173	901.30554
386.57443	900.38544
386.62714	901.18182
386.67984	905.22723
386.73254	900.02118
386.78525	897.93378
386.83795	898.1369
386.89066	901.36316
386.94336	901.77551
386.99603	897.83588
387.04874	898.08154
387.10144	898.71228
387.15414	900.90552
387.20685	897.66754
387.25955	896.35876
387.31226	900.02307
387.36496	899.03723
387.41766	895.85455
387.47037	897.45135
387.52307	897.52582
387.57574	902.21265
387.62845	898.12543
387.68115	901.73181
387.73386	900.45361
387.78656	901.27148
387.83926	898.66077
387.89197	902.12213
387.94467	901.01886
387.99738	898.67438
388.05008	900.13452
388.10275	899.59753
388.15546	903.32471
388.20816	902.60736
388.26086	897.63959
388.31357	897.73145
388.36627	899.53766
388.41898	896.87067
388.47168	894.97827
388.52438	900.03448
388.57709	901.36237
388.62979	900.65649
388.68246	900.07855
388.73517	899.28046
388.78787	898.87012
388.84058	895.49286
388.89328	895.30682
388.94598	894.79681
388.99869	899.00555
389.05139	903.90186
389.1041	897.73242
389.1568	900.98688
389.20947	901.86798
389.26218	897.29559
389.31488	894.79272
389.36758	898.87738
389.42029	901.29077
389.47299	900.02271
389.5257	901.21936
389.5784	895.85345
389.6311	900.50806
389.68381	900.04883
389.73648	896.57629
389.78918	899.31262
389.84189	899.98718
389.89459	902.01312
389.9473	901.70624
390	898.58142
390.0527	896.96741
390.10541	898.99554
390.15811	898.76819
390.21082	898.80981
390.26352	899.23077
390.31619	898.77124
390.3689	898.58844
390.4216	896.53802
390.4743	899.73425
390.52701	895.84113
390.57971	896.88641
390.63242	898.76941
390.68512	902.35547
390.73782	899.65369
390.79053	901.79358
390.8432	902.09381
390.8959	903.11584
390.94861	899.86249
391.00131	901.49158
391.05402	900.61517
391.10672	902.43323
391.15942	899.60278
391.21213	894.66962
391.26483	898.4574
391.31754	895.86609
391.37021	898.6106
391.42291	901.30957
391.47562	902.11487
391.52832	905.47913
391.58102	901.7616
391.63373	899.58154
391.68643	902.33643
391.73914	905.99469
391.79184	899.31226
391.84454	901.54816
391.89725	900.79987
391.94992	898.80566
392.00262	902.53918
392.05533	902.30621
392.10803	899.82715
392.16074	901.78485
392.21344	897.61432
392.26614	898.0509
392.31885	901.2511
392.37155	900.33112
392.42426	897.86865
392.47693	902.19965
392.52963	896.47888
392.58234	901.16541
392.63504	903.97864
392.68774	896.09766
392.74045	899.19043
392.79315	896.43512
392.84586	900.39508
392.89856	900.3316
392.95126	897.45776
393.00397	899.22766
393.05664	902.64893
393.10934	899.98212
393.16205	895.80646
393.21475	899.58667
393.26746	901.94543
393.32016	902.31378
393.37286	900.45612
393.42557	900.09735
393.47827	903.57983
393.53098	896.15729
393.58365	895.11975
393.63635	896.70612
393.68906	900.76251
393.74176	896.93781
393.79446	900.03711
393.84717	899.4212
393.89987	896.82233
393.95258	899.78931
394.00528	902.59851
394.05798	902.61578
394.11066	903.2746
394.16336	901.0816
394.21606	896.55646
394.26877	901.05414
394.32147	901.3736
394.37418	898.65796
394.42688	901.70776
394.47958	902.54785
394.53229	901.48834
394.58499	899.57452
394.6377	900.01959
394.69037	899.22015
394.74307	904.84863
394.79578	901.86261
394.84848	900.03955
394.90118	902.93048
394.95389	900.73334
395.00659	900.14313
395.0593	910.57086
395.112	899.06726
395.1647	902.53925
395.21738	903.36548
395.27008	895.59155
395.32278	892.42792
395.37549	898.14014
395.42819	899.97803
395.4809	900.12054
395.5336	901.19006
395.5863	902.86536
395.63901	902.05957
395.69171	899.75085
395.74442	898.52789
395.79709	900.49139
395.84979	900.66669
395.9025	902.94507
395.9552	902.32898
396.0079	898.7757
396.06061	899.38708
396.11331	892.95135
396.16602	898.30072
396.21872	901.92163
396.27142	902.5932
396.3241	897.87573
396.3768	898.7467
396.4295	899.75739
396.48221	897.4201
396.53491	896.68542
396.58762	897.66638
396.64032	898.50623
396.69302	899.86792
396.74573	902.58911
396.79843	902.73932
396.8511	900.61877
396.90381	898.52802
396.95651	895.52209
397.00922	903.16632
397.06192	901.52985
397.11462	895.43018
397.16733	897.96094
397.22003	902.10541
397.27274	905.10138
397.32544	899.87854
397.37814	900.99261
397.43082	899.67328
397.48352	900.7442
397.53622	902.14868
397.58893	897.08466
397.64163	898.61621
397.69434	900.19916
397.74704	898.64838
397.79974	901.10175
397.85245	901.13446
397.90515	900.91718
397.95782	902.08649
398.01053	900.28094
398.06323	901.60986
398.11594	901.97754
398.16864	901.34229
398.22134	900.98029
398.27405	902.85004
398.32675	903.80963
398.37946	921.76648
398.43216	901.17761
398.48486	901.17761
398.53754	906.9519
398.59024	895.41846
398.64294	898.79449
398.69565	899.17291
398.74835	901.96466
398.80106	899.34119
398.85376	897.78387
398.90646	899.43787
398.95917	899.30054
399.01187	897.07489
399.06454	899.54218
399.11725	899.66022
399.16995	903.18719
399.22266	901.74982
399.27536	899.5578
399.32806	899.01746
399.38077	901.56329
399.43347	899.67078
399.48618	898.12146
399.53888	897.87897
399.59155	900.74469
399.64426	901.09766
399.69696	900.88641
399.74966	902.3728
399.80237	902.0567
399.85507	899.00269
399.90778	898.11951
399.96048	901.9798
400.01318	899.6795
400.06589	899.41663
400.11859	902.31476
400.17126	901.49243
400.22397	902.64185
400.27667	900.56683
400.32938	898.87415
400.38208	900.74036
400.43478	902.45331
400.48749	901.13403
400.54019	900.09943
400.5929	899.47406
400.6456	903.31635
400.69827	903.1106
400.75098	899.81421
400.80368	899.38855
400.85638	901.54547
400.90909	898.02374
400.96179	901.26013
401.0145	899.22473
401.0672	898.32294
401.1199	900.21417
401.17261	896.58771
401.22531	899.4129
401.27798	901.18933
401.33069	899.83533
401.38339	898.29742
401.4361	898.74268
401.4888	901.20941
401.5415	902.16473
401.59421	901.98456
401.64691	899.57813
401.69962	899.435
401.75232	900.84753
401.80499	899.16406
401.8577	899.24121
401.9104	901.36945
401.9631	903.82098
402.01581	900.65485
402.06851	900.02863
402.12122	904.67328
402.17392	900.20276
402.22662	902.83276
402.27933	901.70856
402.332	899.77991
402.3847	899.34253
402.43741	900.25757
402.49011	901.09521
402.54282	901.10138
402.59552	901.56543
402.64822	898.28754
402.70093	896.97766
402.75363	899.28625
402.80634	900.48792
402.85904	899.3996
402.91171	897.47455
402.96442	899.09888
403.01712	903.56482
403.06982	900.43903
403.12253	901.5592
403.17523	902.22223
403.22794	903.46356
403.28064	901.06702
403.33334	898.48492
403.38605	900.91455
403.43872	900.52014
403.49142	901.15393
403.54413	901.11121
403.59683	899.26178
403.64954	901.04785
403.70224	904.66931
403.75494	902.41858
403.80765	899.79523
403.86035	900.06116
403.91306	898.80768
403.96576	898.01282
404.01843	898.93341
404.07114	900.06616
404.12384	902.70923
404.17654	901.74579
404.22925	900.9826
404.28195	900.66699
404.33466	899.59918
404.38736	899.16663
404.44006	902.22339
404.49277	906.32062
404.54544	903.71344
404.59814	898.59686
404.65085	901.48303
404.70355	900.76703
404.75626	897.76935
404.80896	898.58588
404.86166	899.76196
404.91437	900.41608
404.96707	902.67609
405.01978	903.37
405.07245	902.52747
405.12515	902.37634
405.17786	903.3645
405.23056	901.21289
405.28326	902.43286
405.33597	904.45807
405.38867	902.96265
405.44138	898.87805
405.49408	897.63885
405.54678	899.4953
405.59949	901.52167
405.65216	904.87402
405.70486	905.54053
405.75757	901.6665
405.81027	899.69226
405.86298	896.94623
405.91568	897.76764
405.96838	904.51233
406.02109	903.72162
406.07379	897.31128
406.1265	895.98077
406.17917	900.41785
406.23187	904.7226
406.28458	900.36517
406.33728	899.49371
406.38998	906.33746
406.44269	904.61591
406.49539	901.08325
406.5481	900.99091
406.6008	900.58771
406.6535	897.97241
406.70621	895.80688
406.75888	900.43719
406.81158	903.41315
406.86429	901.22162
406.91699	899.16467
406.9697	898.40289
407.0224	898.70782
407.0751	897.80682
407.12781	896.34552
407.18051	898.79425
407.23322	902.70111
407.28589	905.20728
407.33859	903.41431
407.3913	902.64758
407.444	904.63965
407.4967	902.82104
407.54941	903.31158
407.60211	904.91486
407.65482	904.39154
407.70752	899.5329
407.76022	896.71411
407.8129	899.61224
407.8656	902.50604
407.9183	903.7124
407.97101	904.40265
408.02371	902.36407
408.07642	898.7265
408.12912	900.7301
408.18182	898.0896
408.23453	896.82715
408.28723	900.88086
408.33994	898.63043
408.39261	899.91193
408.44531	903.797
408.49802	904.13666
408.55072	902.83875
408.60342	901.12018
408.65613	899.30438
408.70883	901.37933
408.76154	901.85364
408.81424	901.71423
408.86694	903.7923
408.91962	903.79004
408.97232	904.55634
409.02502	903.81305
409.07773	902.91052
409.13043	903.87909
409.18314	904.38257
409.23584	897.05475
409.28854	897.88287
409.34125	899.56378
409.39395	900.41656
409.44666	897.23828
409.49933	898.90973
409.55203	902.96582
409.60474	903.96075
409.65744	901.17865
409.71014	902.12946
409.76285	902.80701
409.81555	898.89496
409.86826	898.63409
409.92096	902.17761
409.97366	904.18781
410.02634	902.27753
410.07904	899.22485
410.13174	901.39539
410.18445	900.15356
410.23715	899.02557
410.28986	899.61444
410.34256	899.8916
410.39526	906.52466
410.44797	906.68372
410.50067	903.37122
410.55334	903.40985
410.60605	904.57867
410.65875	905.39166
410.71146	902.4696
410.76416	899.2713
410.81686	901.87769
410.86957	906.32703
410.92227	902.45337
410.97498	901.67578
411.02768	906.57172
411.08038	905.51575
411.13306	899.09814
411.18576	898.56946
411.23846	904.86334
411.29117	909.57788
411.34387	898.03333
411.39658	895.98621
411.44928	902.19098
411.50198	904.81537
411.55469	905.72552
411.60739	898.16296
411.66006	905.23566
411.71277	904.63599
411.76547	902.26471
411.81818	900.97827
411.87088	903.08252
411.92358	907.95679
411.97629	901.44537
412.02899	900.70215
412.0817	901.04779
412.1344	906.41693
412.1871	900.47235
412.23978	900.33337
412.29248	904.17072
412.34518	905.88538
412.39789	901.48895
412.45059	906.31323
412.5033	906.06842
412.556	905.11115
412.6087	899.13196
412.66141	899.33386
412.71411	899.36615
412.76678	901.98541
412.81949	905.06464
412.87219	902.47223
412.9249	905.92633
412.9776	905.99896
413.0303	901.82831
413.08301	901.68622
413.13571	907.66785
413.18842	904.66248
413.24112	901.6048
413.29379	901.32343
413.3465	906.95013
413.3992	907.04297
413.4519	901.21545
413.50461	898.48822
413.55731	907.49487
413.61002	904.13788
413.66272	902.87543
413.71542	896.88214
413.76813	900.92859
413.82083	905.97693
413.8735	906.31964
413.92621	902.6286
413.97891	900.41138
414.03162	906.25348
414.08432	906.99646
414.13702	898.5838
414.18973	902.85175
414.24243	908.15515
414.29514	903.51575
414.34784	904.7417
414.40051	904.05328
414.45322	908.70984
414.50592	901.77026
414.55862	903.02692
414.61133	907.51813
414.66403	902.29578
414.71674	898.55603
414.76944	899.52759
414.82214	897.07007
414.87485	905.42535
414.92755	899.40607
414.98022	900.28455
415.03293	902.99695
415.08563	903.79419
415.13834	899.44165
415.19104	902.95898
415.24374	902.10907
415.29645	902.80396
415.34915	905.48132
415.40186	901.75177
415.45456	900.87598
415.50723	902.27924
415.55994	900.92517
415.61264	906.07813
415.66534	898.55377
415.71805	908.02771
415.77075	903.44128
415.82346	902.88995
415.87616	903.34717
415.92886	908.75366
415.98157	907.27472
416.03424	900.17725
416.08694	903.35175
416.13965	903.4201
416.19235	905.70935
416.24506	901.54645
416.29776	901.62256
416.35046	904.86725
416.40317	906.08466
416.45587	904.13202
416.50858	903.93207
416.56128	903.48462
416.61395	903.44092
416.66666	902.09656
416.71936	903.74316
416.77206	901.94189
416.82477	899.92456
416.87747	903.4939
416.93018	904.63287
416.98288	908.4826
417.03558	906.10803
417.08829	902.87012
417.14096	904.24054
417.19366	908.86658
417.24637	903.16412
417.29907	898.11237
417.35178	901.41016
417.40448	906.7699
417.45718	903.62524
417.50989	900.64752
417.56259	904.56464
417.6153	906.98767
417.668	902.36792
417.72067	899.61713
417.77338	904.38727
417.82608	911.86127
417.87878	906.28491
417.93149	903.57623
417.98419	904.35638
418.0369	904.56
418.0896	901.42859
418.1423	900.81885
418.19501	903.11023
418.24768	906.27277
418.30038	903.52264
418.35309	901.18634
418.40579	907.62848
418.4585	909.9162
418.5112	903.55127
418.5639	904.34882
418.61661	903.84076
418.66931	908.68835
418.72202	906.62872
418.77469	899.61157
418.82739	904.97327
418.8801	908.23706
418.9328	903.6272
418.9855	902.78888
419.03821	905.08594
419.09091	908.43036
419.14362	902.41278
419.19632	902.43622
419.24902	906.85553
419.30173	904.17999
419.3544	904.15125
419.4071	901.68652
419.45981	906.58771
419.51251	910.71295
419.56522	904.64532
419.61792	903.46667
419.67062	904.85522
419.72333	907.31982
419.77603	901.04254
419.82874	903.17432
419.88141	900.45355
419.93411	902.83881
419.98682	901.12244
420.03952	900.9859
420.09222	899.90906
420.14493	906.27557
420.19763	906.61078
420.25034	902.43231
420.30304	905.92725
420.35574	906.75769
420.40845	905.20612
420.46112	903.46393
420.51382	905.2395
420.56653	905.65247
420.61923	902.76245
420.67194	907.84332
420.72464	908.01978
420.77734	907.10681
420.83005	902.66809
420.88275	900.86664
420.93546	906.06445
420.98813	904.79944
421.04083	901.21478
421.09354	903.55597
421.14624	904.82056
421.19894	905.36206
421.25165	907.00824
421.30435	906.15851
421.35706	903.63336
421.40976	903.0199
421.46246	901.6825
421.51514	900.57233
421.56784	905.28168
421.62054	907.00934
421.67325	905.63953
421.72595	906.34186
421.77866	908.79047
421.83136	907.54199
421.88406	908.19281
421.93677	905.25519
421.98947	906.40094
422.04218	903.86072
422.09485	900.94891
422.14755	900.91815
422.20026	902.69635
422.25296	907.6731
422.30566	905.92883
422.35837	903.66364
422.41107	903.5957
422.46378	905.19971
422.51648	908.2915
422.56918	904.90765
422.62186	908.55682
422.67456	907.43811
422.72726	903.11981
422.77997	905.11731
422.83267	904.55505
422.88538	904.12799
422.93808	903.81024
422.99078	903.8045
423.04349	908.7431
423.09619	912.21735
423.1489	909.30463
423.20157	901.78229
423.25427	901.18854
423.30698	906.72406
423.35968	904.63171
423.41238	906.30182
423.46509	908.51471
423.51779	910.9328
423.5705	908.1004
423.6232	903.37579
423.6759	907.62402
423.72858	908.55524
423.78128	905.38324
423.83398	903.50244
423.88669	902.89185
423.93939	907.54156
423.9921	907.47217
424.0448	906.59943
424.0975	910.51837
424.15021	910.38055
424.20291	906.1098
424.25558	903.86359
424.30829	904.05194
424.36099	910.07843
424.4137	907.71417
424.4664	903.63538
424.5191	907.05231
424.57181	907.82013
424.62451	907.16876
424.67722	902.62085
424.72992	904.05121
424.78262	909.31482
424.8353	906.31714
424.888	902.92883
424.9407	903.24402
424.99341	908.32745
425.04611	907.77771
425.09882	906.60577
425.15152	905.15295
425.20422	908.30756
425.25693	908.57416
425.30963	905.47614
425.3623	906.16229
425.41501	904.20721
425.46771	902.92377
425.52042	904.02875
425.57312	906.50836
425.62582	907.35645
425.67853	904.59772
425.73123	902.80792
425.78394	904.61371
425.83664	906.84113
425.88934	906.30017
425.94202	903.14172
425.99472	903.65704
426.04742	906.82672
426.10013	908.56458
426.15283	908.55664
426.20554	905.21729
426.25824	903.57446
426.31094	905.44
426.36365	905.3606
426.41635	905.51355
426.46902	908.40924
426.52173	907.16858
426.57443	904.31378
426.62714	905.48376
426.67984	907.77655
426.73254	907.26459
426.78525	906.15167
426.83795	903.7923
426.89066	905.42902
426.94336	909.17999
426.99603	907.81641
427.04874	904.24475
427.10144	907.15063
427.15414	907.78406
427.20685	902.09692
427.25955	900.58392
427.31226	904.36292
427.36496	904.92963
427.41766	902.48981
427.47037	905.18909
427.52307	907.00232
427.57574	903.90808
427.62845	903.07495
427.68115	905.65033
427.73386	909.03876
427.78656	910.0799
427.83926	906.21912
427.89197	905.97461
427.94467	907.59595
427.99738	903.88531
428.05008	904.53992
428.10275	907.67413
428.15546	908.98914
428.20816	908.83197
428.26086	907.7818
428.31357	907.26733
428.36627	910.28534
428.41898	906.87421
428.47168	906.52386
428.52438	908.26312
428.57709	909.41711
428.62979	906.71204
428.68246	900.10394
428.73517	902.69629
428.78787	908.33612
428.84058	908.88824
428.89328	908.11688
428.94598	905.96173
428.99869	906.10553
429.05139	906.91376
429.1041	903.10236
429.1568	903.63654
429.20947	906.64032
429.26218	906.60663
429.31488	906.12372
429.36758	906.4021
429.42029	907.81
429.47299	906.15546
429.5257	904.94678
429.5784	903.94183
429.6311	908.14886
429.68381	910.14575
429.73648	906.14099
429.78918	908.52728
429.84189	908.06097
429.89459	905.70026
429.9473	904.36969
430	903.33655
430.0527	906.77344
430.10541	906.36023
430.15811	903.18958
430.21082	903.987
430.26352	909.57837
430.31619	911.65863
430.3689	908.1842
430.4216	906.20752
430.4743	908.16028
430.52701	909.07336
430.57971	908.88666
430.63242	908.3302
430.68512	907.25671
430.73782	906.98322
430.79053	905.49261
430.8432	906.40802
430.8959	907.50647
430.94861	918.43097
431.00131	916.59351
431.05402	905.41656
431.10672	907.9201
431.15942	909.53876
431.21213	904.98651
431.26483	906.60712
431.31754	911.28241
431.37021	909.42493
431.42291	905.40155
431.47562	904.45587
431.52832	906.9386
431.58102	905.06012
431.63373	908.22394
431.68643	909.06104
431.73914	909.4743
431.79184	908.82214
431.84454	904.34259
431.89725	903.84412
431.94992	904.97894
432.00262	905.60376
432.05533	904.85956
432.10803	906.73834
432.16074	909.36749
432.21344	908.37561
432.26614	905.75256
432.31885	908.87469
432.37155	909.76636
432.42426	906.26813
432.47693	904.02417
432.52963	904.76697
432.58234	906.52948
432.63504	905.53583
432.68774	905.03625
432.74045	904.79449
432.79315	906.16119
432.84586	905.6886
432.89856	904.79675
432.95126	904.94232
433.00397	907.4165
433.05664	909.57965
433.10934	906.45758
433.16205	905.07715
433.21475	907.31482
433.26746	908.59357
433.32016	904.98541
433.37286	903.3371
433.42557	906.33356
433.47827	907.11359
433.53098	902.7583
433.58365	903.20776
433.63635	910.0899
433.68906	910.64435
433.74176	908.24768
433.79446	909.25049
433.84717	910.38074
433.89987	910.2688
433.95258	907.41089
434.00528	906.38794
434.05798	908.27216
434.11066	907.54199
434.16336	905.16821
434.21606	905.03424
434.26877	907.03668
434.32147	906.18909
434.37418	905.79236
434.42688	907.43311
434.47958	907.18921
434.53229	906.94202
434.58499	904.95764
434.6377	907.92188
434.69037	909.72241
434.74307	904.96686
434.79578	905.95166
434.84848	908.46844
434.90118	906.60535
434.95389	905.34967
435.00659	903.36621
435.0593	904.47418
435.112	909.36249
435.1647	907.37689
435.21738	903.00159
435.27008	904.50018
435.32278	908.25732
435.37549	908.138
435.42819	904.76685
435.4809	902.39636
435.5336	903.77728
435.5863	905.40546
435.63901	904.78271
435.69171	905.29285
435.74442	906.29254
435.79709	904.41656
435.84979	904.05853
435.9025	906.81494
435.9552	908.18536
436.0079	909.7019
436.06061	907.29034
436.11331	903.70245
436.16602	905.33997
436.21872	905.32074
436.27142	904.21405
436.3241	908.133
436.3768	909.69598
436.4295	906.58777
436.48221	904.59119
436.53491	907.03381
436.58762	911.37915
436.64032	909.44739
436.69302	906.87726
436.74573	906.61823
436.79843	905.74957
436.8511	904.87604
436.90381	906.94379
436.95651	909.77832
437.00922	908.74231
437.06192	906.25134
437.11462	904.26086
437.16733	907.64703
437.22003	912.43781
437.27274	911.62848
437.32544	907.08679
437.37814	905.21106
437.43082	908.89319
437.48352	907.56616
437.53622	904.58972
437.58893	905.32739
437.64163	907.3949
437.69434	906.35504
437.74704	902.28394
437.79974	904.99457
437.85245	909.5011
437.90515	906.31567
437.95782	902.72888
438.01053	904.03967
438.06323	906.41522
438.11594	904.61096
438.16864	902.52087
438.22134	903.26361
438.27405	905.74091
438.32675	908.28632
438.37946	907.97321
438.43216	908.32495
438.48486	911.12335
438.53754	906.68817
438.59024	901.14929
438.64294	903.55774
438.69565	909.77814
438.74835	911.83087
438.80106	907.21655
438.85376	906.03967
438.90646	909.83173
438.95917	909.66998
439.01187	906.60999
439.06454	907.58655
439.11725	910.67139
439.16995	905.76715
439.22266	904.49841
439.27536	905.27142
439.32806	907.6958
439.38077	906.44415
439.43347	904.54749
439.48618	907.96735
439.53888	909.52032
439.59155	907.68158
439.64426	903.95593
439.69696	905.66254
439.74966	910.57416
439.80237	908.94836
439.85507	907.37695
439.90778	907.01343
439.96048	908.10608
440.01318	909.07092
440.06589	906.60321
440.11859	905.99341
440.17126	907.77722
440.22397	906.71832
440.27667	904.89392
440.32938	906.21625
440.38208	910.93573
440.43478	911.86084
440.48749	907.62677
440.54019	908.40576
440.5929	912.39471
440.6456	911.58234
440.69827	908.25854
440.75098	907.67261
440.80368	909.6394
440.85638	910.00928
440.90909	904.05115
440.96179	906.56421
441.0145	910.19379
441.0672	910.24554
441.1199	909.1217
441.17261	907.31537
441.22531	906.7135
441.27798	903.75507
441.33069	905.38934
441.38339	908.16138
441.4361	908.70758
441.4888	908.8786
441.5415	906.72998
441.59421	908.36298
441.64691	910.39105
441.69962	904.10669
441.75232	902.74902
441.80499	904.65332
441.8577	906.33356
441.9104	905.62921
441.9631	905.2077
442.01581	910.1438
442.06851	908.13977
442.12122	905.27716
442.17392	906.18286
442.22662	906.28546
442.27933	907.599
442.332	907.68835
442.3847	905.58472
442.43741	908.85651
442.49011	912.36957
442.54282	909.35406
442.59552	908.49347
442.64822	909.67841
442.70093	909.72266
442.75363	907.62915
442.80634	906.38507
442.85904	906.85345
442.91171	908.69379
442.96442	909.02686
443.01712	904.60254
443.06982	905.7475
443.12253	907.91156
443.17523	908.38666
443.22794	905.21136
443.28064	908.53296
443.33334	913.25934
443.38605	913.0752
443.43872	908.15295
443.49142	908.07947
443.54413	910.24463
443.59683	908.46307
443.64954	904.32117
443.70224	906.72687
443.75494	916.05243
443.80765	909.79376
443.86035	905.67987
443.91306	908.74872
443.96576	910.95801
444.01843	911.32361
444.07114	906.01007
444.12384	907.50671
444.17654	907.4494
444.22925	906.41895
444.28195	904.52686
444.33466	909.80493
444.38736	911.85553
444.44006	911.10553
444.49277	905.35388
444.54544	908.21753
444.59814	913.0473
444.65085	907.31543
444.70355	909.77386
444.75626	909.67633
444.80896	907.45593
444.86166	908.41638
444.91437	909.40228
444.96707	908.88306
445.01978	910.79608
445.07245	905.4751
445.12515	904.98785
445.17786	904.5307
445.23056	905.22241
445.28326	906.53632
445.33597	910.84595
445.38867	910.15991
445.44138	913.1275
445.49408	911.17944
445.54678	910.84528
445.59949	908.02008
445.65216	908.56702
445.70486	908.49182
445.75757	913.28473
445.81027	911.64465
445.86298	912.6424
445.91568	908.09406
445.96838	903.56512
446.02109	904.27502
446.07379	905.45056
446.1265	909.46533
446.17917	905.47028
446.23187	906.15271
446.28458	911.37543
446.33728	905.05609
446.38998	906.59155
446.44269	911.13574
446.49539	910.53278
446.5481	908.46765
446.6008	906.83887
446.6535	908.87708
446.70621	910.08508
446.75888	908.53113
446.81158	906.6568
446.86429	915.07123
446.91699	912.12714
446.9697	907.96295
447.0224	902.8736
447.0751	907.7738
447.12781	909.17438
447.18051	911.49072
447.23322	909.76086
447.28589	908.43298
447.33859	911.16003
447.3913	910.664
447.444	908.91443
447.4967	904.24402
447.54941	908.33142
447.60211	906.13977
447.65482	904.3631
447.70752	907.95642
447.76022	909.93335
447.8129	907.50562
447.8656	906.48291
447.9183	906.45532
447.97101	908.13184
448.02371	907.1189
448.07642	903.49268
448.12912	908.26581
448.18182	909.52393
448.23453	908.78003
448.28723	906.2597
448.33994	908.71838
448.39261	910.75922
448.44531	908.69647
448.49802	907.31921
448.55072	909.35034
448.60342	908.93262
448.65613	904.52191
448.70883	903.90576
448.76154	909.34619
448.81424	915.66797
448.86694	908.29785
448.91962	906.48254
448.97232	909.02826
449.02502	911.28296
449.07773	911.27124
449.13043	912.82312
449.18314	911.26263
449.23584	911.17999
449.28854	908.31213
449.34125	908.06494
449.39395	906.56232
449.44666	911.04736
449.49933	910.90051
449.55203	913.1911
449.60474	910.84308
449.65744	913.39722
449.71014	910.79242
449.76285	907.95142
449.81555	906.89111
449.86826	913.39026
449.92096	908.78174
449.97366	911.47864
450.02634	907.66669
450.07904	909.92938
450.13174	908.90997
450.18445	909.53906
450.23715	907.65564
450.28986	910.80029
450.34256	908.93335
450.39526	909.78064
450.44797	910.50659
450.50067	913.38513
450.55334	911.86951
450.60605	911.04321
450.65875	910.67346
450.71146	909.42139
450.76416	907.05878
450.81686	912.35498
450.86957	908.36322
450.92227	910.59784
450.97498	909.4917
451.02768	906.4693
451.08038	913.16125
451.13306	907.92224
451.18576	914.19568
451.23846	909.8006
451.29117	911.43591
451.34387	909.17749
451.39658	911.09003
451.44928	911.56915
451.50198	911.14209
451.55469	911.6792
451.60739	911.84247
451.66006	908.79156
451.71277	911.50067
451.76547	910.01453
451.81818	910.52673
451.87088	907.27759
451.92358	909.33154
451.97629	914.13153
452.02899	914.43658
452.0817	911.33691
452.1344	909.55096
452.1871	908.93433
452.23978	912.2912
452.29248	909.59003
452.34518	907.57092
452.39789	918.89227
452.45059	910.45496
452.5033	910.19098
452.556	913.40173
452.6087	905.86188
452.66141	909.76312
452.71411	913.15955
452.76678	909.83313
452.81949	911.54413
452.87219	910.79681
452.9249	908.78033
452.9776	904.24048
453.0303	913.39093
453.08301	913.6673
453.13571	914.34314
453.18842	906.98993
453.24112	910.73016
453.29379	911.76678
453.3465	914.50226
453.3992	913.54199
453.4519	914.80426
453.50461	915.05389
453.55731	912.61932
453.61002	916.31824
453.66272	909.16425
453.71542	914.39746
453.76813	912.91571
453.82083	910.7113
453.8735	914.2074
453.92621	911.74493
453.97891	914.25665
454.03162	913.77747
454.08432	913.30377
454.13702	916.06842
454.18973	915.08856
454.24243	912.1123
454.29514	916.13031
454.34784	918.3999
454.40051	911.93188
454.45322	907.69934
454.50592	915.9455
454.55862	911.74579
454.61133	911.00659
454.66403	912.51978
454.71674	911.05096
454.76944	910.5683
454.82214	910.83557
454.87485	909.36462
454.92755	918.5769
454.98022	910.19568
455.03293	916.38019
455.08563	914.70044
455.13834	916.19971
455.19104	914.98938
455.24374	908.79852
455.29645	911.50073
455.34915	912.53412
455.40186	919.00867
455.45456	913.63269
455.50723	912.3653
455.55994	914.35522
455.61264	920.58441
455.66534	910.26819
455.71805	913.89722
455.77075	915.93579
455.82346	911.28003
455.87616	913.96729
455.92886	909.32159
455.98157	915.95923
456.03424	909.38983
456.08694	916.49353
456.13965	911.91052
456.19235	913.10541
456.24506	915.61011
456.29776	912.45374
456.35046	911.93964
456.40317	919.10602
456.45587	920.45721
456.50858	915.3158
456.56128	913.78552
456.61395	913.78577
456.66666	911.58844
456.71936	910.59113
456.77206	916.26459
456.82477	911.93292
456.87747	911.39575
456.93018	916.57959
456.98288	913.97137
457.03558	912.7193
457.08829	917.15179
457.14096	913.54895
457.19366	915.72699
457.24637	914.30573
457.29907	919.71741
457.35178	913.17877
457.40448	917.27759
457.45718	915.14996
457.50989	915.13513
457.56259	917.61621
457.6153	913.49377
457.668	914.92297
457.72067	914.47546
457.77338	916.94788
457.82608	915.53271
457.87878	909.86865
457.93149	916.44415
457.98419	914.60162
458.0369	913.36041
458.0896	914.59155
458.1423	920.53668
458.19501	915.97803
458.24768	914.93835
458.30038	916.66656
458.35309	914.25287
458.40579	919.40302
458.4585	914.09113
458.5112	916.73425
458.5639	914.8266
458.61661	923.92627
458.66931	916.94391
458.72202	907.99054
458.77469	919.70117
458.82739	916.45105
458.8801	915.68042
458.9328	916.42944
458.9855	921.39148
459.03821	925.67224
459.09091	917.61719
459.14362	914.31616
459.19632	915.0329
459.24902	916.54327
459.30173	913.87
459.3544	921.25653
459.4071	916.43817
459.45981	914.17426
459.51251	917.37708
459.56522	918.4248
459.61792	916.23364
459.67062	917.46344
459.72333	917.2514
459.77603	922.46027
459.82874	922.53973
459.88141	921.81787
459.93411	913.91266
459.98682	916.32709
460.03952	916.61957
460.09222	925.31165
460.14493	919.961
460.19763	923.15515
460.25034	918.24548
460.30304	913.26337
460.35574	916.71808
460.40845	920.98505
460.46112	917.31171
460.51382	916.81042
460.56653	917.82129
460.61923	919.33948
460.67194	923.09912
460.72464	918.41425
460.77734	919.40497
460.83005	919.4303
460.88275	917.20917
460.93546	920.21191
460.98813	921.23877
461.04083	913.53351
461.09354	920.01886
461.14624	921.80072
461.19894	920.57568
461.25165	922.09387
461.30435	921.86536
461.35706	921.88538
461.40976	920.65491
461.46246	916.68219
461.51514	922.44043
461.56784	917.48419
461.62054	925.7251
461.67325	920.25031
461.72595	917.27539
461.77866	916.04834
461.83136	915.58801
461.88406	919.33258
461.93677	917.61346
461.98947	917.90106
462.04218	920.91589
462.09485	922.6543
462.14755	920.23364
462.20026	924.91632
462.25296	919.48535
462.30566	919.52808
462.35837	921.83362
462.41107	927.14703
462.46378	913.60364
462.51648	916.63208
462.56918	920.07928
462.62186	917.90991
462.67456	920.24536
462.72726	926.53357
462.77997	917.80096
462.83267	924.60583
462.88538	918.32318
462.93808	923.50702
462.99078	923.68579
463.04349	919.08765
463.09619	921.31934
463.1489	921.56427
463.20157	920.6001
463.25427	920.315
463.30698	917.74304
463.35968	921.94104
463.41238	923.01672
463.46509	926.14465
463.51779	923.4173
463.5705	912.021
463.6232	922.10266
463.6759	924.91382
463.72858	920.62671
463.78128	922.84644
463.83398	923.19025
463.88669	918.18536
463.93939	919.88348
463.9921	912.55994
464.0448	923.99664
464.0975	918.73126
464.15021	919.74359
464.20291	926.77509
464.25558	921.07263
464.30829	922.41205
464.36099	919.49554
464.4137	923.85773
464.4664	918.75317
464.5191	922.31647
464.57181	921.27905
464.62451	924.47638
464.67722	925.72839
464.72992	921.47461
464.78262	921.85547
464.8353	919.45697
464.888	918.76331
464.9407	918.90863
464.99341	921.67047
465.04611	928.08459
465.09882	919.43817
465.15152	925.64301
465.20422	926.04059
465.25693	924.25323
465.30963	922.00287
465.3623	927.28973
465.41501	924.88043
465.46771	927.30975
465.52042	924.43378
465.57312	923.18744
465.62582	921.86432
465.67853	922.54846
465.73123	919.11517
465.78394	925.948
465.83664	917.24146
465.88934	925.56805
465.94202	924.40692
465.99472	924.01776
466.04742	921.22949
466.10013	916.02777
466.15283	929.12683
466.20554	927.01892
466.25824	920.93152
466.31094	922.60706
466.36365	922.85132
466.41635	920.1496
466.46902	921.30157
466.52173	928.57043
466.57443	925.13019
466.62714	926.91199
466.67984	921.51459
466.73254	924.66724
466.78525	923.42743
466.83795	918.01758
466.89066	923.11298
466.94336	923.53766
466.99603	921.13977
467.04874	924.29565
467.10144	925.23517
467.15414	918.01843
467.20685	927.75189
467.25955	921.6131
467.31226	921.82062
467.36496	929.19751
467.41766	926.75006
467.47037	926.5863
467.52307	924.66687
467.57574	921.83197
467.62845	923.97247
467.68115	923.49078
467.73386	926.39935
467.78656	924.41675
467.83926	922.83667
467.89197	923.48615
467.94467	918.91418
467.99738	924.28589
468.05008	925.23029
468.10275	928.27911
468.15546	925.03522
468.20816	926.40253
468.26086	923.70551
468.31357	924.34326
468.36627	923.55768
468.41898	929.72705
468.47168	927.14197
468.52438	917.24866
468.57709	918.2442
468.62979	922.54535
468.68246	927.46686
468.73517	925.65894
468.78787	924.78687
468.84058	923.16235
468.89328	922.14508
468.94598	921.9729
468.99869	927.19061
469.05139	926.77826
469.1041	922.69849
469.1568	927.02618
469.20947	925.12134
469.26218	920.776
469.31488	929.12213
469.36758	928.43115
469.42029	927.50928
469.47299	925.85345
469.5257	930.17804
469.5784	923.64093
469.6311	921.4483
469.68381	928.30255
469.73648	928.47375
469.78918	924.96021
469.84189	923.77216
469.89459	923.9303
469.9473	928.66382
470	928.21222
470.0527	922.99921
470.10541	927.16296
470.15811	929.87433
470.21082	924.49664
470.26352	925.23608
470.31619	929.18408
470.3689	926.0108
470.4216	928.94928
470.4743	925.79651
470.52701	926.83142
470.57971	932.88855
470.63242	928.95398
470.68512	923.12762
470.73782	924.64697
470.79053	923.78046
470.8432	920.18396
470.8959	925.51361
470.94861	926.75989
471.00131	928.50916
471.05402	926.86609
471.10672	928.57324
471.15942	926.2793
471.21213	928.84467
471.26483	927.72284
471.31754	928.52136
471.37021	928.8244
471.42291	929.52722
471.47562	930.13458
471.52832	934.48474
471.58102	931.03955
471.63373	928.85022
471.68643	928.39081
471.73914	929.21704
471.79184	927.01678
471.84454	928.56628
471.89725	931.51917
471.94992	927.95355
472.00262	929.1626
472.05533	930.68201
472.10803	929.00891
472.16074	928.7572
472.21344	933.32166
472.26614	932.9519
472.31885	927.76886
472.37155	927.54004
472.42426	930.08612
472.47693	930.67474
472.52963	930.97406
472.58234	929.10718
472.63504	928.2309
472.68774	934.12488
472.74045	933.00323
472.79315	930.22882
472.84586	931.86749
472.89856	931.67444
472.95126	931.30219
473.00397	929.72626
473.05664	927.13654
473.10934	933.27838
473.16205	934.72296
473.21475	931.79901
473.26746	928.15698
473.32016	928.599
473.37286	929.85754
473.42557	933.55933
473.47827	929.57324
473.53098	928.61829
473.58365	932.3703
473.63635	936.97742
473.68906	932.41235
473.74176	933.80676
473.79446	931.79327
473.84717	928.58313
473.89987	931.24213
473.95258	934.14587
474.00528	931.57092
474.05798	933.09454
474.11066	938.54022
474.16336	937.909
474.21606	933.28595
474.26877	936.3056
474.32147	934.19312
474.37418	933.16901
474.42688	930.35797
474.47958	929.81366
474.53229	932.93109
474.58499	932.89868
474.6377	930.59705
474.69037	932.61176
474.74307	931.17493
474.79578	934.09381
474.84848	936.96625
474.90118	932.88507
474.95389	935.18939
475.00659	933.84235
475.0593	928.90594
475.112	932.01599
475.1647	934.0415
475.21738	936.55157
475.27008	937.00372
475.32278	933.30817
475.37549	931.55164
475.42819	932.66931
475.4809	932.49585
475.5336	933.43365
475.5863	936.82275
475.63901	937.34637
475.69171	936.27417
475.74442	929.62927
475.79709	930.63824
475.84979	934.33441
475.9025	931.91968
475.9552	928.48462
476.0079	933.9743
476.06061	935.02393
476.11331	931.41486
476.16602	933.16925
476.21872	934.58142
476.27142	931.78839
476.3241	931.42572
476.3768	934.34064
476.4295	933.67603
476.48221	934.60266
476.53491	937.9361
476.58762	934.47931
476.64032	930.45886
476.69302	934.49701
476.74573	936.39886
476.79843	935.25995
476.8511	934.57428
476.90381	933.09528
476.95651	931.58282
477.00922	932.5567
477.06192	939.78101
477.11462	937.49701
477.16733	934.56635
477.22003	938.07227
477.27274	937.64105
477.32544	934.19049
477.37814	933.21661
477.43082	935.99042
477.48352	936.78955
477.53622	941.45337
477.58893	941.27014
477.64163	936.80908
477.69434	935.35742
477.74704	933.80042
477.79974	937.53516
477.85245	936.18658
477.90515	936.81207
477.95782	939.43988
478.01053	940.89087
478.06323	938.2298
478.11594	935.35132
478.16864	936.96295
478.22134	936.86456
478.27405	937.12732
478.32675	938.35669
478.37946	935.35443
478.43216	933.61377
478.48486	930.9599
478.53754	930.51971
478.59024	932.16443
478.64294	932.84875
478.69565	932.24554
478.74835	934.19269
478.80106	935.32373
478.85376	937.24847
478.90646	939.93359
478.95917	935.19391
479.01187	937.64417
479.06454	936.06897
479.11725	937.64606
479.16995	938.01086
479.22266	936.86102
479.27536	934.32495
479.32806	936.64502
479.38077	934.91748
479.43347	933.54236
479.48618	935.35944
479.53888	946.57819
479.59155	945.19653
479.64426	935.68542
479.69696	930.42163
479.74966	932.9292
479.80237	932.2439
479.85507	934.61877
479.90778	933.56873
479.96048	932.21631
480.01318	935.09998
480.06589	935.75726
480.11859	933.61621
480.17126	934.6543
480.22397	938.6449
480.27667	936.93866
480.32938	931.77936
480.38208	933.12756
480.43478	934.7746
480.48749	935.59784
480.54019	932.68524
480.5929	938.46344
480.6456	940.13293
480.69827	935.32507
480.75098	935.2215
480.80368	936.98303
480.85638	937.62482
480.90909	936.37799
480.96179	937.37872
481.0145	935.9411
481.0672	933.2627
481.1199	935.84094
481.17261	936.71033
481.22531	939.18494
481.27798	936.44397
481.33069	935.10779
481.38339	936.79523
481.4361	938.09741
481.4888	938.57611
481.5415	938.18018
481.59421	934.90881
481.64691	936.33752
481.69962	936.38068
481.75232	936.98297
481.80499	931.92798
481.8577	929.63428
481.9104	934.9433
481.9631	937.48071
482.01581	934.96442
482.06851	937.74829
482.12122	937.22241
482.17392	937.95587
482.22662	936.9903
482.27933	935.28625
482.332	938.24182
482.3847	940.58051
482.43741	939.42072
482.49011	936.8595
482.54282	935.31744
482.59552	938.99414
482.64822	936.77814
482.70093	940.47864
482.75363	940.97394
482.80634	937.56537
482.85904	940.52899
482.91171	939.83643
482.96442	942.68817
483.01712	940.93884
483.06982	941.52704
483.12253	941.65131
483.17523	938.97949
483.22794	938.47693
483.28064	937.25903
483.33334	934.71051
483.38605	937.61682
483.43872	942.76685
483.49142	945.08417
483.54413	941.46185
483.59683	940.52283
483.64954	938.40643
483.70224	943.87567
483.75494	943.30615
483.80765	936.63403
483.86035	935.98022
483.91306	941.8299
483.96576	939.60443
484.01843	939.00226
484.07114	937.58215
484.12384	941.34265
484.17654	939.2356
484.22925	939.07281
484.28195	939.01813
484.33466	941.51526
484.38736	943.56848
484.44006	944.50189
484.49277	945.02325
484.54544	945.90112
484.59814	943.55267
484.65085	941.05463
484.70355	941.32172
484.75626	939.97369
484.80896	938.7406
484.86166	941.63318
484.91437	938.26709
484.96707	943.40771
485.01978	943.20551
485.07245	950.78162
485.12515	960.6134
485.17786	951.58667
485.23056	950.19708
485.28326	947.79156
485.33597	943.69165
485.38867	944.67206
485.44138	943.67767
485.49408	950.5528
485.54678	956.08728
485.59949	948.06989
485.65216	949.04865
485.70486	941.07288
485.75757	940.21796
485.81027	942.49286
485.86298	948.77057
485.91568	945.30811
485.96838	950.41101
486.02109	951.42676
486.07379	949.61084
486.1265	948.15118
486.17917	949.39978
486.23187	951.72766
486.28458	952.49713
486.33728	952.41119
486.38998	953.2536
486.44269	948.02399
486.49539	948.70801
486.5481	948.927
486.6008	953.90588
486.6535	949.96753
486.70621	948.49237
486.75888	946.65839
486.81158	953.7583
486.86429	951.56433
486.91699	955.21674
486.9697	952.57379
487.0224	957.55768
487.0751	958.26538
487.12781	955.06421
487.18051	954.54193
487.23322	959.25403
487.28589	951.37067
487.33859	950.07092
487.3913	960.33984
487.444	959.63123
487.4967	957.86548
487.54941	959.42413
487.60211	960.4021
487.65482	961.30127
487.70752	960.8736
487.76022	976.12952
487.8129	962.79065
487.8656	962.79065
487.9183	962.79065
487.97101	962.79065
488.02371	962.79065
488.07642	962.79065
488.12912	995.98975
488.18182	961.61523
488.23453	956.84491
488.28723	959.22546
488.33994	955.91547
488.39261	955.31024
488.44531	963.36578
488.49802	966.50647
488.55072	959.44452
488.60342	965.64459
488.65613	962.13751
488.70883	958.50726
488.76154	958.79407
488.81424	960.58789
488.86694	963.6344
488.91962	961.87439
488.97232	966.80396
489.02502	971.41376
489.07773	969.68982
489.13043	980.82593
489.18314	995.88
489.23584	1016.1273
489.28854	1059.2001
489.34125	1128.4111
489.39395	1219.8036
489.44666	1316.2876
489.49933	1412.0731
489.55203	1515.2679
489.60474	1651.2317
489.65744	1810.1208
489.71014	1905.53
489.76285	1943.5846
489.81555	1947.3229
489.86826	1916.3958
489.92096	1911.0007
489.97366	1898.2377
490.02634	1882.762
490.07904	1870.4224
490.13174	1858.4463
490.18445	1862.1139
490.23715	1862.9169
490.28986	1851.5452
490.34256	1846.7561
490.39526	1840.3035
490.44797	1836.1208
490.50067	1836.0433
490.55334	1844.9069
490.60605	1845.4634
490.65875	1837.4846
490.71146	1835.1527
490.76416	1833.7834
490.81686	1815.7269
490.86957	1804.3934
490.92227	1809.1211
490.97498	1811.7399
491.02768	1822.6227
491.08038	1824.4396
491.13306	1827.9043
491.18576	1840.7382
491.23846	1854.2733
491.29117	1876.8167
491.34387	1896.1488
491.39658	1915.6761
491.44928	1949.1053
491.50198	2008.0472
491.55469	2072.23
491.60739	2170.0161
491.66006	2294.9897
491.71277	2386.334
491.76547	2435.9985
491.81818	2441.8196
491.87088	2403.3906
491.92358	2325.9016
491.97629	2288.3877
492.02899	2268.8711
492.0817	2253.6199
492.1344	2218.0432
492.1871	2175.1262
492.23978	2118.2322
492.29248	2052.4253
492.34518	1985.6185
492.39789	1940.8566
492.45059	1896.1123
492.5033	1853.778
492.556	1821.8049
492.6087	1796.4253
492.66141	1764.3345
492.71411	1751.5464
492.76678	1737.7977
492.81949	1726.0491
492.87219	1718.8356
492.9249	1700.1082
492.9776	1681.0516
493.0303	1665.7622
493.08301	1648.1909
493.13571	1650.7762
493.18842	1638.3922
493.24112	1633.5588
493.29379	1628.422
493.3465	1626.1992
493.3992	1617.4023
493.4519	1614.2424
493.50461	1612.748
493.55731	1612.0718
493.61002	1608.8783
493.66272	1615.2318
493.71542	1617.5679
493.76813	1603.4221
493.82083	1592.7161
493.8735	1608.4473
493.92621	1613.9255
493.97891	1608.4766
494.03162	1608.1666
494.08432	1600.0725
494.13702	1600.1227
494.18973	1607.6328
494.24243	1585.2563
494.29514	1592.3711
494.34784	1592.365
494.40051	1581.8125
494.45322	1570.598
494.50592	1574.3242
494.55862	1571.9891
494.61133	1560.8026
494.66403	1551.8658
494.71674	1553.7301
494.76944	1569.2155
494.82214	1542.6436
494.87485	1540.3501
494.92755	1548.4556
494.98022	1560.5376
495.03293	1533.0601
495.08563	1529.7295
495.13834	1525.946
495.19104	1517.2152
495.24374	1514.6409
495.29645	1514.8842
495.34915	1510.1035
495.40186	1522.2689
495.45456	1517.3328
495.50723	1510.9608
495.55994	1526.7249
495.61264	1506.6632
495.66534	1504.7263
495.71805	1523.8774
495.77075	1526.8311
495.82346	1523.0852
495.87616	1524.3516
495.92886	1525.9476
495.98157	1518.8557
496.03424	1530.1671
496.08694	1546.5667
496.13965	1540.7266
496.19235	1555.3381
496.24506	1544.8906
496.29776	1554.0956
496.35046	1562.5101
496.40317	1563.0114
496.45587	1566.0851
496.50858	1571.3004
496.56128	1587.4098
496.61395	1569.5057
496.66666	1598.8737
496.71936	1588.7766
496.77206	1580.1591
496.82477	1582.3455
496.87747	1588.0685
496.93018	1571.6383
496.98288	1599.1644
497.03558	1571.9047
497.08829	1579.806
497.14096	1583.0813
497.19366	1591.7744
497.24637	1598.7383
497.29907	1601.7318
497.35178	1592.0552
497.40448	1606.1637
497.45718	1632.7977
497.50989	1624.6858
497.56259	1619.5258
497.6153	1615.6382
497.668	1628.5695
497.72067	1628.6841
497.77338	1668.6991
497.82608	1674.127
497.87878	1670.472
497.93149	1708.9584
497.98419	1718.7328
498.0369	1695.9075
498.0896	1727.7843
498.1423	1715.7781
498.19501	1762.3823
498.24768	1778.7567
498.30038	1798.8474
498.35309	1819.5603
498.40579	1826.4469
498.4585	1840.197
498.5112	1890.1873
498.5639	1938.3752
498.61661	1965.281
498.66931	1987.2296
498.72202	2036.5671
498.77469	2096.7375
498.82739	2143.4434
498.8801	2150.8452
498.9328	2209.6028
498.9855	2236.1174
499.03821	2269.7322
499.09091	2307.1238
499.14362	2341.5625
499.19632	2395.7004
499.24902	2402.3564
499.30173	2470.7329
499.3544	2537.0435
499.4071	2565.8013
499.45981	2645.27
499.51251	2634.1765
499.56522	2689.4717
499.61792	2728.3047
499.67062	2801.0669
499.72333	2881.7168
499.77603	2903.4194
499.82874	2916.9365
499.88141	2991.2319
499.93411	3041.6587
499.98682	3043.9109
500.03952	3151.3611
500.09222	3221.5066
500.14493	3236.6323
500.19763	3315.8325
500.25034	3363.1978
500.30304	3390.2144
500.35574	3457.1833
500.40845	3478.7822
500.46112	3562.687
500.51382	3663.3408
500.56653	3674.0784
500.61923	3785.4619
500.67194	3825.2815
500.72464	3931.3904
500.77734	4050.1748
500.83005	4046.4907
500.88275	4112.7485
500.93546	4147.8608
500.98813	4247.9351
501.04083	4277.0396
501.09354	4322.0537
501.14624	4382.7622
501.19894	4456.127
501.25165	4577.2051
501.30435	4628.6152
501.35706	4713.1953
501.40976	4854.5928
501.46246	4947.124
501.51514	5075.7544
501.56784	5212.2856
501.62054	5361.2813
501.67325	5509.5342
501.72595	5658.6865
501.77866	5779.3638
501.83136	5931.4067
501.88406	6053.6909
501.93677	6182.0684
501.98947	6200.6924
502.04218	6320.1328
502.09485	6419.7427
502.14755	6467.127
502.20026	6539.3237
502.25296	6614.7485
502.30566	6729.083
502.35837	6771.8901
502.41107	6785.5947
502.46378	6790.7266
502.51648	6830.959
502.56918	6802.0718
502.62186	6751.5835
502.67456	6752.6138
502.72726	6720.564
502.77997	6780.8447
502.83267	6786.9702
502.88538	6842.5249
502.93808	6841.6274
502.99078	6914.9668
503.04349	6952.7188
503.09619	6923.0679
503.1489	6886.7612
503.20157	6838.6538
503.25427	6789.3618
503.30698	6607.5527
503.35968	6433.2363
503.41238	6219.0977
503.46509	6098.1445
503.51779	5898.915
503.5705	5759.6816
503.6232	5671.5215
503.6759	5545.9971
503.72858	5434.894
503.78128	5335.3882
503.83398	5267.8008
503.88669	5137.7476
503.93939	5018.7002
503.9921	4873.9102
504.0448	4759.9414
504.0975	4676.8159
504.15021	4578.2969
504.20291	4482.4097
504.25558	4383.1494
504.30829	4283.1865
504.36099	4161.7212
504.4137	4054.3286
504.4664	3987.6135
504.5191	3904.2957
504.57181	3812.5068
504.62451	3724.9907
504.67722	3689.0781
504.72992	3647.9941
504.78262	3562.3616
504.8353	3523.3875
504.888	3507.2029
504.9407	3450.1956
504.99341	3422.334
505.04611	3378.2756
505.09882	3315.771
505.15152	3285.1814
505.20422	3264.5923
505.25693	3240.24
505.30963	3222.4031
505.3623	3191.2031
505.41501	3161.4897
505.46771	3136.8018
505.52042	3099.5928
505.57312	3050.8901
505.62582	3032.3279
505.67853	2977.7573
505.73123	2935.2024
505.78394	2927.7158
505.83664	2888.511
505.88934	2843.4033
505.94202	2832.9978
505.99472	2804.1382
506.04742	2779.2031
506.10013	2769.0515
506.15283	2741.3467
506.20554	2712.886
506.25824	2682.4888
506.31094	2689.5562
506.36365	2671.9688
506.41635	2608.0835
506.46902	2603.8093
506.52173	2622.1421
506.57443	2604.5991
506.62714	2563.8159
506.67984	2542.5906
506.73254	2498.4988
506.78525	2476.8933
506.83795	2476.8494
506.89066	2439.0203
506.94336	2430.7673
506.99603	2391.9497
507.04874	2378.1191
507.10144	2360.8198
507.15414	2334.9927
507.20685	2302.6323
507.25955	2293.3828
507.31226	2272.4172
507.36496	2249.7366
507.41766	2251.2412
507.47037	2253.5178
507.52307	2256.7644
507.57574	2246.135
507.62845	2257.7817
507.68115	2234.9866
507.73386	2223.3928
507.78656	2198.7793
507.83926	2230.999
507.89197	2218.0322
507.94467	2208.1597
507.99738	2254.8708
508.05008	2223.4998
508.10275	2222.7339
508.15546	2223.7102
508.20816	2238.8643
508.26086	2237.4304
508.31357	2219.5112
508.36627	2210.385
508.41898	2232.543
508.47168	2220.0916
508.52438	2213.6931
508.57709	2246.5532
508.62979	2221.7141
508.68246	2236.094
508.73517	2259.0305
508.78787	2230.9883
508.84058	2230.1248
508.89328	2216.9573
508.94598	2226.1526
508.99869	2285.4377
509.05139	2290.3433
509.1041	2262.5938
509.1568	2280.0625
509.20947	2318.5164
509.26218	2305.3425
509.31488	2319.5034
509.36758	2313.2471
509.42029	2352.8777
509.47299	2352.261
509.5257	2347.3411
509.5784	2411.7463
509.6311	2387.2559
509.68381	2407.4385
509.73648	2405.2759
509.78918	2418.9846
509.84189	2425.7944
509.89459	2427.874
509.9473	2464.2266
510	2508.9158
