350	882.08478
350.05276	869.79279
350.10556	879.94568
350.15833	881.92706
350.21112	869.5849
350.26389	879.12488
350.31668	875.53723
350.36945	875.95148
350.42224	875.63898
350.47501	877.62488
350.5278	879.20667
350.58057	875.12341
350.63336	877.48157
350.68613	877.4137
350.73892	876.41235
350.79169	887.15759
350.84448	877.20313
350.89725	867.18793
350.95004	877.92145
351.00281	874.47473
351.0556	875.47375
351.10837	880.93848
351.16116	879.47675
351.21393	879.95074
351.26672	870.67163
351.31949	869.96924
351.37228	886.36316
351.42505	879.75635
351.47784	877.06567
351.53061	873.63159
351.5834	871.09186
351.63617	878.4234
351.68896	869.17981
351.74173	869.82385
351.79453	877.73566
351.84729	882.53619
351.90009	869.8031
351.95285	871.57825
352.00562	872.37488
352.05841	876.42151
352.11118	871.63293
352.16397	872.67377
352.21674	877.26892
352.26953	882.66858
352.3223	875.69226
352.37509	873.98779
352.42786	877.29651
352.48065	878.32983
352.53342	869.64954
352.58621	877.4339
352.63898	880.63751
352.69177	878.4519
352.74454	876.27759
352.79733	871.0672
352.8501	877.48596
352.90289	877.01306
352.95566	874.81635
353.00845	873.99854
353.06122	873.11133
353.11401	877.88977
353.16678	874.79974
353.21957	872.24365
353.27234	876.39331
353.32513	881.6087
353.3779	879.17133
353.43069	878.60773
353.48346	875.95398
353.53625	877.76208
353.58902	878.14899
353.64182	875.72925
353.69458	879.45276
353.74738	875.40802
353.80014	876.33185
353.85291	881.30042
353.9057	876.02301
353.95847	876.23871
354.01126	869.79083
354.06403	870.50867
354.11682	874.82666
354.16959	876.17126
354.22238	871.47766
354.27515	873.98218
354.32794	876.83795
354.38071	877.15173
354.4335	873.26636
354.48627	873.0022
354.53906	876.78693
354.59183	883.50061
354.64462	874.76367
354.69739	869.81012
354.75018	873.30048
354.80295	878.42236
354.85574	880.15686
354.90851	875.00604
354.9613	874.37451
355.01407	878.00238
355.06686	875.68311
355.11963	871.42682
355.17242	870.57849
355.22519	876.75293
355.27798	878.85773
355.33075	875.76941
355.38354	876.86969
355.43631	882.18555
355.48911	880.66315
355.54187	875.79083
355.59467	878.04675
355.64743	879.04602
355.70023	875.08527
355.75299	871.31195
355.80576	875.7959
355.85855	882.96313
355.91132	881.46637
355.96411	875.26575
356.01688	876.1178
356.06967	881.49622
356.12244	880.20569
356.17523	876.94324
356.228	877.65961
356.28079	880.11707
356.33356	877.13715
356.38635	871.95288
356.43912	871.23785
356.49191	875.36621
356.54468	875.64783
356.59747	873.55817
356.65024	871.7478
356.70303	876.38123
356.7558	880.88757
356.80859	878.11841
356.86136	880.49988
356.91415	877.77991
356.96692	873.97919
357.01971	872.97058
357.07248	874.70941
357.12527	874.41443
357.17804	875.39026
357.23083	874.39343
357.2836	875.52002
357.3364	877.77563
357.38916	875.19275
357.44196	875.90674
357.49472	876.58661
357.54752	879.86273
357.60028	880.21088
357.65308	878.90851
357.70584	876.84076
357.75861	879.70471
357.8114	877.79077
357.86417	872.43298
357.91696	871.96088
357.96973	875.52216
358.02252	883.44263
358.07529	881.09119
358.12808	877.63641
358.18085	882.77826
358.23364	883.18799
358.28641	877.95905
358.3392	877.9527
358.39197	879.28479
358.44476	873.34076
358.49753	869.76733
358.55032	870.46069
358.60309	879.5752
358.65588	878.03906
358.70865	873.53406
358.76144	875.07678
358.81421	874.31854
358.867	872.41077
358.91977	870.4295
358.97256	868.6972
359.02533	880.64288
359.07813	884.02887
359.13089	871.58081
359.18369	871.14935
359.23645	871.93439
359.28925	877.20813
359.34201	877.94543
359.39481	879.44562
359.44757	875.13361
359.50037	882.23993
359.55313	874.48474
359.60593	873.79926
359.65869	879.68207
359.71146	874.61969
359.76425	869.60638
359.81702	875.57166
359.86981	880.98358
359.92258	878.53888
359.97537	870.11865
360.02814	870.55121
360.08093	878.36151
360.1337	882.80487
360.18649	876.09082
360.23926	875.745
360.29205	879.57758
360.34482	878.33081
360.39761	867.38538
360.45038	882.03033
360.50317	877.05981
360.55594	872.5943
360.60873	872.0946
360.6615	877.06104
360.71429	873.13428
360.76706	884.88928
360.81985	873.83258
360.87262	876.50464
360.92542	884.33167
360.97818	888.91693
361.03098	875.65253
361.08374	877.93762
361.13654	879.9707
361.1893	884.31799
361.2421	876.58984
361.29486	880.26984
361.34766	874.06244
361.40042	876.33551
361.45322	871.50568
361.50598	871.05914
361.55875	883.78845
361.61154	882.34161
361.66431	874.85626
361.7171	874.94562
361.76987	873.26923
361.82266	875.70154
361.87543	871.20483
361.92822	881.91901
361.98099	876.14404
362.03378	877.63452
362.08655	875.02521
362.13934	874.96228
362.19211	878.43689
362.2449	881.14612
362.29767	874.37671
362.35046	870.93518
362.40323	877.177
362.45602	880.58893
362.50879	876.91125
362.56158	872.34003
362.61435	878.42291
362.66714	879.20636
362.71991	874.19543
362.77271	876.99927
362.82547	878.4046
362.87827	881.26611
362.93103	874.16632
362.98383	870.8335
363.03659	873.9845
363.08939	880.38501
363.14215	880.46613
363.19495	873.91138
363.24771	879.16882
363.30051	882.61536
363.35327	882.24121
363.40607	881.98535
363.45883	877.56433
363.5116	885.13135
363.56439	877.57019
363.61716	874.19952
363.66995	878.42346
363.72272	883.18219
363.77551	882.6994
363.82828	873.87384
363.88107	874.31378
363.93384	881.17511
363.98663	880.70355
364.0394	877.06219
364.09219	876.29895
364.14496	875.10449
364.19775	874.79028
364.25052	871.95172
364.30331	874.75439
364.35608	879.25006
364.40887	876.52667
364.46164	872.82288
364.51443	875.80664
364.5672	881.77649
364.62	884.25562
364.67276	879.70734
364.72556	879.12445
364.77832	883.22778
364.83112	879.07227
364.88388	874.50983
364.93668	875.74908
364.98944	875.11462
365.04224	871.52771
365.095	874.3761
365.1478	878.30243
365.20056	879.20825
365.25336	875.92981
365.30612	869.37744
365.35892	876.98492
365.41168	881.22144
365.46445	876.71716
365.51724	870.09833
365.57001	869.50293
365.6228	875.69598
365.67557	877.57983
365.72836	876.35461
365.78113	876.96552
365.83392	877.0932
365.88669	876.38892
365.93948	875.34039
365.99225	879.57104
366.04504	883.3548
366.09781	875.7547
366.1506	873.42157
366.20337	881.88599
366.25616	882.64941
366.30893	876.6568
366.36172	874.85864
366.41449	878.51276
366.46729	884.50311
366.52005	884.98901
366.57285	877.65479
366.62561	873.99286
366.67841	879.55505
366.73117	877.90503
366.78397	871.76105
366.83673	874.64856
366.88953	875.51563
366.94229	873.84796
366.99509	874.06403
367.04785	875.63934
367.10065	877.9834
367.15341	879.89929
367.20621	878.61145
367.25897	878.36407
367.31174	880.66357
367.36453	878.66058
367.4173	880.72607
367.47009	880.22577
367.52286	879.64331
367.57565	878.99255
367.62842	878.70166
367.68121	878.75092
367.73398	884.12866
367.78677	881.57715
367.83954	877.26007
367.89233	876.31104
367.9451	877.57104
367.99789	879.27246
368.05066	879.1853
368.10345	882.19574
368.15622	884.1131
368.20901	883.13849
368.26178	879.09558
368.31458	873.27509
368.36734	880.78363
368.42014	879.68848
368.4729	874.65002
368.5257	876.12427
368.57846	881.50696
368.63126	879.01526
368.68402	875.15985
368.73682	873.26581
368.78958	881.60297
368.84238	882.30347
368.89514	876.41547
368.94794	877.75916
369.0007	878.3172
369.0535	873.6778
369.10626	874.89923
369.15906	875.92786
369.21182	877.62842
369.26459	874.54053
369.31738	871.9751
369.37015	884.99725
369.42294	878.74463
369.47571	877.94324
369.5285	871.703
369.58127	875.21472
369.63406	876.97443
369.68683	877.28723
369.73962	875.18225
369.79239	874.77094
369.84518	879.80469
369.89795	878.44415
369.95074	879.02386
370.00351	879.14496
370.0563	883.2262
370.10907	883.75909
370.16187	878.20215
370.21463	880.40875
370.26743	881.21881
370.32019	881.39661
370.37299	881.59827
370.42575	879.22968
370.47855	882.63788
370.53131	884.57092
370.58411	871.68958
370.63687	874.43958
370.68967	876.85004
370.74243	882.82715
370.79523	879.38867
370.84799	872.54681
370.90079	877.14215
370.95355	873.49072
371.00635	872.84259
371.05911	877.2514
371.11191	877.74756
371.16467	878.06476
371.21744	876.60437
371.27023	873.24139
371.323	881.13776
371.37579	876.67578
371.42856	876.2215
371.48135	872.94556
371.53412	879.42572
371.58691	872.65833
371.63968	877.15265
371.69247	872.11298
371.74524	877.23938
371.79803	877.71368
371.8508	872.5481
371.90359	877.48706
371.95636	875.37561
372.00916	878.68103
372.06192	879.00903
372.11472	876.96094
372.16748	882.35028
372.22028	876.711
372.27304	878.09924
372.32584	876.96832
372.3786	872.68878
372.4314	874.02649
372.48416	870.70062
372.53696	873.17749
372.58972	875.20959
372.64252	879.04407
372.69528	874.20734
372.74808	880.61285
372.80084	879.64362
372.85364	883.5946
372.9064	872.12909
372.9592	874.10455
373.01196	878.08008
373.06476	879.59241
373.11752	874.68585
373.17029	874.60602
373.22308	885.8454
373.27585	885.12762
373.32864	878.30566
373.38141	880.03265
373.4342	880.09576
373.48697	877.6925
373.53976	873.28638
373.59253	880.7179
373.64532	876.81342
373.69809	883.68512
373.75089	882.19769
373.80365	875.97357
373.85645	881.66309
373.90921	885.80829
373.96201	877.24438
374.01477	881.20245
374.06757	877.88062
374.12033	880.78717
374.17313	878.31982
374.22589	878.065
374.27869	886.70166
374.33145	886.65521
374.38425	879.79077
374.43701	875.01025
374.48981	879.03247
374.54257	879.9989
374.59537	872.49304
374.64813	876.42126
374.70093	880.57562
374.75369	882.80261
374.80649	875.15997
374.85925	878.84003
374.91205	884.75519
374.96481	883.80469
375.01758	883.96552
375.07037	879.73535
375.12314	884.59546
375.17593	882.11597
375.2287	889.17456
375.28149	888.40735
375.33426	887.60022
375.38705	885.41913
375.43982	885.85449
375.49261	885.18243
375.54538	887.91943
375.59818	885.61719
375.65094	884.18585
375.70374	886.46954
375.7565	892.31915
375.8093	891.06055
375.86206	884.82361
375.91486	888.75409
375.96762	896.03741
376.02042	896.69312
376.07318	888.90283
376.12598	887.78705
376.17874	898.2934
376.23154	897.03986
376.2843	896.7713
376.3371	895.41675
376.38986	893.42023
376.44266	905.80469
376.49542	904.05786
376.54822	904.01672
376.60098	908.31165
376.65378	904.88306
376.70654	911.84918
376.75934	909.91364
376.8121	911.86499
376.8649	908.44763
376.91766	902.4621
376.97043	910.66541
377.02322	908.00824
377.07599	905.95428
377.12878	905.95221
377.18155	903.37921
377.23434	903.54584
377.28711	904.67487
377.3399	912.20001
377.39267	914.58051
377.44547	911.92059
377.49823	911.65491
377.55103	914.078
377.60379	907.46539
377.65659	910.80609
377.70935	906.02631
377.76215	896.25568
377.81491	900.41864
377.86771	902.72699
377.92047	902.42151
377.97327	896.5481
378.02603	896.32446
378.07883	901.52515
378.13159	905.46033
378.18439	899.95728
378.23715	894.87946
378.28995	894.24396
378.34271	893.39893
378.39551	890.89844
378.44827	889.901
378.50107	886.91809
378.55383	885.06696
378.60663	887.85052
378.65939	886.44965
378.71219	890.10211
378.76495	892.56445
378.81775	892.06378
378.87051	890.27698
378.92328	893.54529
378.97607	893.96814
379.02884	885.57996
379.08163	888.64484
379.1344	892.87433
379.18719	896.6311
379.23996	898.24658
379.29276	892.89972
379.34552	897.90601
379.39832	899.47687
379.45108	898.89514
379.50388	905.66119
379.55664	910.26947
379.60944	909.64618
379.6622	900.72339
379.715	891.75378
379.76776	893.52911
379.82056	901.99493
379.87332	895.78418
379.92612	888.25433
379.97888	886.08154
380.03168	885.13153
380.08444	883.01166
380.13724	881.04602
380.19	881.98578
380.2428	884.26538
380.29556	880.19006
380.34836	883.14819
380.40112	885.21313
380.45392	885.07721
380.50668	882.33148
380.55948	877.42242
380.61224	881.87671
380.66504	887.97504
380.7178	889.86359
380.77057	893.32739
380.82336	896.901
380.87613	897.80664
380.92892	897.26367
380.98169	898.95587
381.03448	902.67664
381.08725	904.29846
381.14005	904.82751
381.19281	904.50165
381.24561	905.10773
381.29837	916.76758
381.35117	912.21399
381.40393	900.84302
381.45673	904.09235
381.50949	900.89868
381.56229	893.97729
381.61505	889.99512
381.66785	891.57202
381.72061	893.51184
381.77341	886.99896
381.82617	879.77026
381.87897	882.49445
381.93173	885.03711
381.98453	882.02429
382.03729	879.05377
382.09009	881.15411
382.14285	888.9162
382.19565	900.23572
382.24841	901.05212
382.30121	892.03271
382.35397	890.29596
382.40677	889.48456
382.45953	888.56427
382.51233	889.35828
382.56509	892.67651
382.61789	893.27362
382.67065	886.9447
382.72342	881.84869
382.77621	887.6322
382.82898	888.34869
382.88177	885.09198
382.93454	886.50055
382.98734	884.87445
383.0401	882.10315
383.0929	881.61133
383.14566	884.27039
383.19846	881.80267
383.25122	877.09308
383.30402	881.70886
383.35678	884.25403
383.40958	878.67944
383.46234	875.99817
383.51514	878.34705
383.5679	876.43085
383.6207	876.72803
383.67346	880.51007
383.72626	878.19592
383.77902	879.65662
383.83182	884.39526
383.88458	882.60254
383.93738	875.51141
383.99014	878.52985
384.04294	882.40692
384.0957	880.52979
384.1485	876.39069
384.20126	878.57916
384.25406	880.77405
384.30682	878.00397
384.35962	875.11652
384.41238	880.70129
384.46518	877.2757
384.51794	875.88617
384.57074	874.27563
384.6235	877.90137
384.67627	882.35699
384.72906	877.89301
384.78183	875.70496
384.83463	875.85364
384.88739	880.71838
384.94019	878.35352
384.99295	871.06525
385.04575	879.58954
385.09851	883.64301
385.15131	877.82373
385.20407	878.6853
385.25687	879.81793
385.30963	879.77356
385.36243	879.67059
385.41519	881.16583
385.46799	878.93018
385.52075	875.24622
385.57355	875.60919
385.62631	873.32019
385.67911	880.94611
385.73187	879.05939
385.78467	876.97687
385.83743	877.41516
385.89023	875.45276
385.94299	877.46582
385.99579	878.5896
386.04855	875.94122
386.10135	878.27313
386.15411	879.77527
386.20691	873.95178
386.25967	869.43323
386.31247	871.22058
386.36523	878.84442
386.41803	882.19507
386.47079	873.96368
386.52359	872.22729
386.57635	875.97131
386.62912	879.65802
386.68192	877.21124
386.73468	877.79602
386.78748	877.63586
386.84024	879.98938
386.89304	877.88123
386.9458	880.25842
386.9986	883.61096
387.05136	879.38159
387.10416	872.51752
387.15692	873.56268
387.20972	876.09723
387.26248	882.20709
387.31528	880.63568
387.36804	877.08368
387.42084	878.82129
387.4736	876.46912
387.5264	874.90369
387.57916	874.69006
387.63196	877.33411
387.68472	880.47925
387.73752	874.74841
387.79028	878.37024
387.84308	882.47546
387.89584	878.80682
387.94864	874.41663
388.0014	879.82056
388.0542	883.56854
388.10696	879.25391
388.15976	873.57471
388.21252	872.63983
388.26532	877.55603
388.31808	878.35059
388.37088	875.85217
388.42365	874.67316
388.47641	876.90527
388.52921	876.96307
388.58197	875.43793
388.63477	880.79852
388.68753	884.50317
388.74033	883.35028
388.79309	879.36334
388.84589	878.00275
388.89865	879.99811
388.95145	879.36346
389.00421	875.10803
389.05701	881.73645
389.10977	880.27002
389.16257	872.01294
389.21533	869.43341
389.26813	875.23828
389.32089	875.44293
389.37369	877.75635
389.42645	877.62207
389.47925	881.86206
389.53201	875.24261
389.58481	879.91156
389.63757	874.48132
389.69037	871.33575
389.74313	882.57776
389.79593	881.57898
389.84869	876.84369
389.90149	877.25201
389.95425	880.97284
390.00705	883.77661
390.05981	879.88129
390.11261	875.78442
390.16537	880.3349
390.21817	879.8335
390.27094	878.34454
390.32373	875.31207
390.3765	879.63171
390.42926	881.45398
390.48206	874.15277
390.53482	880.85931
390.58762	882.00421
390.64038	879.36938
390.69318	874.58423
390.74594	873.30768
390.79874	880.00439
390.8515	877.79797
390.9043	874.38611
390.95706	872.6734
391.00986	880.5957
391.06262	875.17816
391.11542	869.13739
391.16818	879.40369
391.22098	877.40479
391.27374	876.50763
391.32654	873.19775
391.3793	875.58154
391.4321	879.70959
391.48486	876.89453
391.53766	877.95923
391.59042	882.19739
391.64322	882.6377
391.69598	886.25995
391.74878	877.76538
391.80154	872.30402
391.85434	879.79559
391.9071	882.68488
391.9599	870.46515
392.01266	877.28101
392.06546	876.31628
392.11823	873.68555
392.17102	872.0423
392.22379	870.92212
392.27658	880.63745
392.32935	872.40961
392.38211	871.79944
392.43491	878.17853
392.48767	877.97937
392.54047	880.23279
392.59323	876.38031
392.64603	872.73029
392.69879	878.5127
392.75159	885.12439
392.80435	878.56226
392.85715	875.79144
392.90991	879.64966
392.96271	875.30817
393.01547	871.35883
393.06827	876.16327
393.12103	876.00684
393.17383	878.82318
393.22659	875.73993
393.27939	873.90985
393.33215	880.40527
393.38495	883.99841
393.43771	875.56067
393.49051	879.72791
393.54327	880.42303
393.59607	874.37408
393.64883	879.32312
393.70163	875.59589
393.75439	869.87085
393.80719	872.16235
393.85995	869.52271
393.91275	873.45953
393.96552	875.56964
394.01831	880.6355
394.07108	871.95197
394.12387	873.42004
394.17664	876.94653
394.22943	877.08685
394.2822	873.44116
394.33496	874.74774
394.38776	877.05011
394.44052	876.31854
394.49332	878.2821
394.54608	872.6991
394.59888	874.56079
394.65164	885.22363
394.70444	874.52655
394.7572	878.91833
394.81	879.01416
394.86276	874.68842
394.91556	875.00952
394.96832	879.18451
395.02112	879.57367
395.07388	882.40295
395.12668	872.41846
395.17944	877.13641
395.23224	883.05853
395.285	885.84363
395.3378	875.11011
395.39056	877.60736
395.44336	879.30426
395.49612	877.17432
395.54892	878.93964
395.60168	874.81311
395.65448	878.73773
395.70724	880.86639
395.76004	875.72839
395.81281	875.15265
395.8656	872.94098
395.91837	879.50812
395.97116	875.79022
396.02393	878.86267
396.07672	876.43219
396.12949	875.56403
396.18225	880.57062
396.23505	880.41522
396.28781	884.70789
396.34061	882.95013
396.39337	872.20386
396.44617	873.18488
396.49893	878.56903
396.55173	874.41797
396.60449	873.18408
396.65729	876.54175
396.71005	879.52576
396.76285	882.74005
396.81561	871.52112
396.86841	877.5177
396.92117	882.05817
396.97397	877.28015
397.02673	871.88672
397.07953	874.3512
397.13229	882.3667
397.18509	884.80872
397.23785	873.72424
397.29065	877.92798
397.34341	882.8736
397.39621	883.26794
397.44897	878.35168
397.50177	882.03986
397.55453	879.39783
397.60733	885.30096
397.6601	873.92993
397.71289	876.271
397.76566	879.59991
397.81845	876.35461
397.87122	877.57758
397.92401	876.17889
397.97678	871.79468
398.02957	880.48553
398.08234	870.34479
398.1351	873.36066
398.1879	883.02881
398.24066	875.99414
398.29346	875.61353
398.34622	878.21423
398.39902	876.73157
398.45178	882.30817
398.50458	873.84436
398.55734	872.7428
398.61014	876.75653
398.6629	877.96326
398.7157	879.13898
398.76846	873.59821
398.82126	877.02747
398.87402	879.78339
398.92682	880.19098
398.97958	876.43115
399.03238	880.99707
399.08514	879.43781
399.13794	873.34906
399.1907	879.54254
399.2435	880.00214
399.29626	878.97717
399.34906	877.28235
399.40182	872.79663
399.45462	881.16815
399.50739	874.50543
399.56018	874.39606
399.61295	881.69019
399.66574	881.80865
399.71851	882.55621
399.7713	875.08881
399.82407	872.81116
399.87686	879.19629
399.92963	878.82947
399.98242	875.70178
400.03519	873.15356
400.08795	883.02954
400.14075	881.75403
400.19351	873.3606
400.24631	875.63745
400.29907	874.90619
400.35187	879.85413
400.40463	875.58069
400.45743	875.06281
400.51019	879.44031
400.56299	877.65479
400.61575	876.78693
400.66855	877.13489
400.72131	879.59741
400.77411	876.52606
400.82687	876.91931
400.87967	877.995
400.93243	876.87592
400.98523	883.0542
401.03799	876.82733
401.09079	873.72241
401.14355	875.55823
401.19635	876.44861
401.24911	872.3371
401.30191	876.4505
401.35468	877.74017
401.40747	877.86719
401.46024	876.56818
401.51303	879.50208
401.5658	875.88477
401.61859	873.68896
401.67136	876.836
401.72415	879.76416
401.77692	878.84381
401.82971	880.59119
401.88248	881.88623
401.93524	876.71509
401.98804	877.3454
402.0408	882.27057
402.0936	874.96307
402.14636	879.0567
402.19916	880.12567
402.25192	881.47723
402.30472	876.95142
402.35748	874.48419
402.41028	875.89746
402.46304	880.05463
402.51584	875.87286
402.5686	878.06934
402.6214	878.38953
402.67416	876.34576
402.72696	875.35944
402.77972	875.51105
402.83252	875.40363
402.88528	874.56268
402.93808	875.92004
402.99084	881.94812
403.04364	878.62482
403.09641	877.31342
403.1492	876.02759
403.20197	882.4129
403.25476	875.53339
403.30753	876.25781
403.36032	882.54321
403.41309	881.3808
403.46588	875.18262
403.51865	881.18396
403.57144	880.27246
403.62421	873.56067
403.677	874.4552
403.72977	880.48041
403.78256	876.46411
403.83533	876.72913
403.88809	880.04755
403.94089	879.44928
403.99365	877.76398
404.04645	882.50684
404.09921	880.16974
404.15201	877.25049
404.20477	879.53125
404.25757	881.43134
404.31033	872.38208
404.36313	878.44714
404.41589	879.09692
404.46869	881.39276
404.52145	877.67395
404.57425	873.01385
404.62701	878.3808
404.67981	880.35193
404.73257	881.052
404.78537	884.91553
404.83813	876.60065
404.89093	873.09027
404.9437	876.51294
404.99649	875.97302
405.04926	873.20575
405.10205	884.65546
405.15482	879.89319
405.20761	877.07501
405.26038	877.55438
405.31317	875.34979
405.36594	873.85138
405.41873	869.10565
405.4715	878.93524
405.52429	876.05267
405.57706	876.38202
405.62985	874.29218
405.68262	882.44733
405.73541	876.2912
405.78818	879.53033
405.84094	883.42059
405.89374	879.01123
405.9465	871.93634
405.9993	869.72498
406.05206	879.22626
406.10486	873.95703
406.15762	874.40033
406.21042	875.14148
406.26318	881.13867
406.31598	878.79468
406.36874	877.69592
406.42154	875.94189
406.4743	876.39209
406.5271	876.71527
406.57986	879.6637
406.63266	877.07922
406.68542	874.31702
406.73822	878.38385
406.79099	872.8429
406.84378	872.89905
406.89655	878.37762
406.94934	873.12836
407.00211	881.64984
407.0549	872.6955
407.10767	877.3913
407.16046	883.97375
407.21323	878.40479
407.26602	878.716
407.31879	876.21973
407.37158	874.04279
407.42435	876.75519
407.47714	875.16272
407.52991	880.64722
407.5827	885.27057
407.63547	873.88538
407.68826	874.49628
407.74103	877.38055
407.79379	877.83685
407.84659	877.49353
407.89935	880.59418
407.95215	874.08215
408.00491	880.35199
408.05771	880.36621
408.11047	880.74731
408.16327	877.34778
408.21603	877.30884
408.26883	875.85675
408.32159	876.33325
408.37439	875.91821
408.42715	879.78162
408.47995	876.34705
408.53271	876.89618
408.58551	881.23907
408.63828	872.36841
408.69107	875.91895
408.74384	887.25781
408.79663	873.34137
408.8494	876.32666
408.90219	873.83038
408.95496	868.841
409.00775	881.771
409.06052	881.32751
409.11331	873.88495
409.16608	876.2959
409.21887	880.27319
409.27164	881.79828
409.32443	880.34113
409.3772	879.82513
409.42999	880.79541
409.48276	883.26013
409.53555	881.84698
409.58832	881.323
409.64108	880.33606
409.69388	880.79352
409.74664	878.38226
409.79944	878.78888
409.8522	885.56335
409.905	876.64252
409.95776	875.33881
410.01056	872.89777
410.06332	874.71558
410.11612	883.40692
410.16888	876.15375
410.22168	868.16846
410.27444	874.45465
410.32724	879.065
410.38	883.55695
410.4328	876.69165
410.48557	877.70435
410.53836	882.0282
410.59113	873.81281
410.64392	877.50989
410.69669	881.0639
410.74948	875.66541
410.80225	879.01611
410.85504	876.94531
410.90781	877.70703
410.9606	881.95703
411.01337	879.95483
411.06616	879.30908
411.11893	885.27954
411.17172	880.23431
411.22449	879.76776
411.27728	877.92737
411.33005	879.14148
411.38284	878.3476
411.43561	881.92072
411.4884	880.89117
411.54117	878.93719
411.59393	880.12268
411.64673	872.08282
411.69949	882.59003
411.75229	873.80139
411.80505	878.17242
411.85785	876.04578
411.91061	878.90131
411.96341	878.34967
412.01617	880.93964
412.06897	884.82776
412.12173	877.19843
412.17453	882.49091
412.22729	878.34052
412.28009	880.40912
412.33286	882.95929
412.38565	875.7002
412.43842	880.93311
412.49121	880.409
412.54398	879.35095
412.59677	881.87476
412.64954	879.1524
412.70233	883.99738
412.7551	880.34491
412.80789	874.47565
412.86066	876.34613
412.91345	875.85144
412.96622	878.33466
413.01901	875.24365
413.07178	880.36072
413.12457	879.05212
413.17734	876.12189
413.23013	877.87427
413.2829	880.3692
413.33569	876.83771
413.38846	878.79047
413.44125	877.92242
413.49402	878.56537
413.54678	876.14099
413.59958	876.98663
413.65234	878.48389
413.70514	881.25781
413.7579	875.32538
413.8107	875.04889
413.86346	875.19885
413.91626	880.69897
413.96902	877.89392
414.02182	878.4599
414.07458	884.591
414.12738	882.74792
414.18015	878.41193
414.23294	873.49548
414.28571	881.48041
414.3385	879.00677
414.39127	881.5249
414.44406	880.51648
414.49683	878.10071
414.54962	879.34344
414.60239	880.50934
414.65518	880.26367
414.70795	880.17682
414.76074	876.04279
414.81351	873.93628
414.8663	882.32672
414.91907	877.17694
414.97186	877.3136
415.02463	880.95056
415.07742	877.56934
415.13019	880.34778
415.18298	879.12128
415.23575	876.62329
415.28854	878.19885
415.34131	879.47418
415.39407	880.47162
415.44687	879.44
415.49963	876.31995
415.55243	878.08282
415.60519	876.6322
415.65799	882.60913
415.71075	877.2981
415.76355	874.84387
415.81631	882.68732
415.86911	881.43457
415.92188	879.84302
415.97467	880.04419
416.02744	876.94269
416.08023	880.13531
416.133	880.74054
416.18579	880.63812
416.23856	878.24933
416.29135	874.45612
416.34412	878.79468
416.39691	878.54663
416.44968	877.73517
416.50247	877.62988
416.55524	880.39307
416.60803	880.7326
416.6608	878.26141
416.71359	874.86902
416.76636	877.66162
416.81915	874.69403
416.87192	879.89716
416.92471	879.26764
416.97748	881.35742
417.03027	878.59705
417.08304	874.88068
417.13583	879.96521
417.1886	874.5976
417.24139	878.44934
417.29416	876.22101
417.34692	883.65204
417.39972	888.04608
417.45248	882.79248
417.50528	878.39417
417.55804	881.08179
417.61084	873.99097
417.6636	875.84283
417.7164	877.09814
417.76917	876.32654
417.82196	879.17322
417.87473	882.39972
417.92752	874.64783
417.98029	881.67664
418.03308	882.29193
418.08585	880.82294
418.13864	885.55817
418.19141	883.64813
418.2442	875.33545
418.29697	881.47162
418.34976	879.89124
418.40253	870.58972
418.45532	874.16327
418.50809	877.59717
418.56088	878.83508
418.61365	883.24652
418.66644	882.29999
418.71921	881.5719
418.772	881.57056
418.82477	878.92413
418.87756	882.59698
418.93033	880.67151
418.98312	880.31866
419.03589	881.69354
419.08868	881.30975
419.14145	878.80469
419.19424	878.43512
419.24701	880.81073
419.29977	875.18024
419.35257	880.92755
419.40533	882.43054
419.45813	877.18689
419.51089	876.29901
419.56369	875.42877
419.61646	874.30188
419.66925	872.55469
419.72202	875.40228
419.77481	881.0155
419.82758	878.81915
419.88037	877.54156
419.93314	885.34772
419.98593	876.14648
420.0387	876.49274
420.09149	878.40717
420.14426	880.38922
420.19705	878.43951
420.24982	882.34613
420.30261	878.47797
420.35538	880.59937
420.40817	882.39746
420.46094	875.50708
420.51373	874.50214
420.5665	874.28534
420.61929	878.08112
420.67206	878.04633
420.72485	878.62469
420.77762	878.28162
420.83041	874.70374
420.88318	877.56287
420.93597	874.60022
420.98874	874.85089
421.04153	879.55383
421.0943	885.7829
421.14709	884.57306
421.19986	877.27191
421.25262	877.57214
421.30542	883.63507
421.35818	882.20599
421.41098	878.07202
421.46375	878.83032
421.51654	877.30347
421.56931	873.93726
421.6221	878.11438
421.67487	883.28357
421.72766	884.49329
421.78043	885.5882
421.83322	881.97235
421.88599	885.23596
421.93878	881.14783
421.99155	879.35126
422.04434	878.75562
422.09711	874.10913
422.1499	874.3053
422.20267	881.17804
422.25546	880.92883
422.30823	879.97809
422.36102	883.25348
422.41379	880.10559
422.46658	874.83313
422.51935	879.29547
422.57214	883.29004
422.62491	880.3313
422.6777	876.78577
422.73047	875.23981
422.78326	878.60254
422.83603	878.87335
422.88882	882.09766
422.94159	873.28253
422.99438	877.09296
423.04715	874.87231
423.09991	878.40814
423.15271	880.81934
423.20547	877.68433
423.25827	874.63678
423.31104	876.13208
423.36383	875.49731
423.4166	880.03613
423.46939	877.22504
423.52216	878.71649
423.57495	879.58173
423.62772	883.07703
423.68051	881.53601
423.73328	877.17084
423.78607	882.47815
423.83884	880.21484
423.89163	881.34265
423.9444	882.79865
423.99719	883.66083
424.04996	880.66205
424.10275	878.34088
424.15552	876.47552
424.20831	884.28937
424.26108	884.51843
424.31387	882.33447
424.36664	876.83319
424.41943	880.01489
424.4722	880.46613
424.52499	878.46417
424.57776	879.37445
424.63055	882.10132
424.68332	877.8183
424.73611	879.55737
424.78888	880.91333
424.84167	885.28394
424.89444	881.08002
424.94724	873.80554
425	877.01324
425.05276	878.17664
425.10556	881.91956
425.15833	880.8479
425.21112	882.45886
425.26389	881.20978
425.31668	881.86035
425.36945	876.18665
425.42224	881.57257
425.47501	878.91046
425.5278	881.28351
425.58057	879.23315
425.63336	877.89117
425.68613	881.91827
425.73892	877.89301
425.79169	879.5542
425.84448	877.9502
425.89725	879.82092
425.95004	877.57788
426.00281	884.09595
426.0556	887.24756
426.10837	879.29077
426.16116	883.36511
426.21393	884.4043
426.26672	879.45538
426.31949	881.92657
426.37228	878.21106
426.42505	880.42694
426.47784	883.34558
426.53061	882.39038
426.5834	881.12744
426.63617	882.71307
426.68896	878.92389
426.74173	878.84296
426.79453	879.36078
426.84729	880.47089
426.90009	880.11646
426.95285	880.96991
427.00562	879.12695
427.05841	878.72559
427.11118	877.73724
427.16397	879.21167
427.21674	883.57306
427.26953	885.22107
427.3223	882.73676
427.37509	876.62311
427.42786	878.95154
427.48065	882.95813
427.53342	880.47583
427.58621	878.96582
427.63898	881.83502
427.69177	880.96368
427.74454	880.336
427.79733	884.46545
427.8501	888.83923
427.90289	880.8053
427.95566	875.19629
428.00845	881.86261
428.06122	881.68793
428.11401	878.56244
428.16678	875.93658
428.21957	876.07983
428.27234	879.72705
428.32513	878.17004
428.3779	876.56116
428.43069	877.83527
428.48346	882.11346
428.53625	884.07544
428.58902	881.65015
428.64182	883.09698
428.69458	881.52448
428.74738	878.52057
428.80014	878.57239
428.85291	875.36542
428.9057	880.04474
428.95847	878.74048
429.01126	878.5697
429.06403	883.40747
429.11682	878.2677
429.16959	879.76099
429.22238	885.80396
429.27515	880.35608
429.32794	876.75067
429.38071	875.13391
429.4335	879.04706
429.48627	883.00134
429.53906	880.68744
429.59183	882.5047
429.64462	878.23499
429.69739	883.00879
429.75018	884.3941
429.80295	880.7735
429.85574	882.12244
429.90851	876.52802
429.9613	882.992
430.01407	877.44519
430.06686	878.01929
430.11963	884.26801
430.17242	876.33844
430.22519	874.16467
430.27798	879.39191
430.33075	881.16284
430.38354	883.24146
430.43631	876.64606
430.48911	880.70459
430.54187	879.09119
430.59467	880.24585
430.64743	878.77234
430.70023	876.66656
430.75299	876.25732
430.80576	876.25598
430.85855	875.05566
430.91132	880.35376
430.96411	894.17358
431.01688	886.01709
431.06967	885.2572
431.12244	879.7135
431.17523	879.45465
431.228	880.55182
431.28079	879.93567
431.33356	876.10089
431.38635	876.45605
431.43912	879.17383
431.49191	876.48828
431.54468	879.39862
431.59747	881.05005
431.65024	877.15356
431.70303	885.21979
431.7558	888.8678
431.80859	883.90399
431.86136	880.67657
431.91415	874.47223
431.96692	883.10236
432.01971	884.39978
432.07248	882.15948
432.12527	879.65472
432.17804	873.42303
432.23083	876.36432
432.2836	885.93701
432.3364	880.229
432.38916	881.63116
432.44196	877.2074
432.49472	878.30096
432.54752	879.54749
432.60028	884.74017
432.65308	884.44769
432.70584	883.78589
432.75861	883.7049
432.8114	882.85986
432.86417	881.85699
432.91696	886.35681
432.96973	880.83929
433.02252	875.45068
433.07529	881.07446
433.12808	878.36243
433.18085	876.41406
433.23364	880.89294
433.28641	878.69501
433.3392	882.47723
433.39197	880.18201
433.44476	878.8266
433.49753	883.4256
433.55032	882.4577
433.60309	883.47992
433.65588	887.57916
433.70865	876.90155
433.76144	874.3092
433.81421	877.6615
433.867	885.15588
433.91977	878.74615
433.97256	879.86151
434.02533	874.91095
434.07813	881.63531
434.13089	879.14832
434.18369	879.1084
434.23645	879.60785
434.28925	875.24194
434.34201	876.87848
434.39481	874.9422
434.44757	884.00024
434.50037	882.93213
434.55313	883.10443
434.60593	878.23755
434.65869	878.10321
434.71146	874.56274
434.76425	881.34662
434.81702	881.25043
434.86981	880.24707
434.92258	878.79211
434.97537	882.72223
435.02814	882.69183
435.08093	884.00775
435.1337	880.04321
435.18649	884.2041
435.23926	873.66608
435.29205	876.76056
435.34482	878.05524
435.39761	876.75671
435.45038	881.24158
435.50317	878.8645
435.55594	879.09418
435.60873	887.00909
435.6615	883.45117
435.71429	871.96332
435.76706	882.30835
435.81985	876.58807
435.87262	878.46307
435.92542	882.3714
435.97818	876.98499
436.03098	887.91522
436.08374	882.48981
436.13654	875.97559
436.1893	877.03552
436.2421	886.12756
436.29486	874.25867
436.34766	879.32477
436.40042	878.65527
436.45322	876.69562
436.50598	879.00281
436.55875	872.86682
436.61154	875.9704
436.66431	879.47614
436.7171	879.11859
436.76987	875.71259
436.82266	881.41803
436.87543	879.16754
436.92822	885.42633
436.98099	886.57056
437.03378	882.68134
437.08655	878.18188
437.13934	872.19843
437.19211	881.43719
437.2449	878.62952
437.29767	881.0564
437.35046	878.60968
437.40323	881.55975
437.45602	876.61151
437.50879	881.06329
437.56158	878.58398
437.61435	878.57892
437.66714	884.06122
437.71991	877.10895
437.77271	885.04578
437.82547	880.55475
437.87827	878.58734
437.93103	880.1405
437.98383	885.50867
438.03659	881.55817
438.08939	881.07532
438.14215	881.53192
438.19495	880.01569
438.24771	878.0614
438.30051	878.06006
438.35327	878.20978
438.40607	883.05731
438.45883	882.62073
438.5116	870.95984
438.56439	881.39539
438.61716	877.61389
438.66995	879.02863
438.72272	878.57202
438.77551	878.99951
438.82828	878.17291
438.88107	880.28113
438.93384	875.9859
438.98663	883.39862
439.0394	881.13062
439.09219	882.10547
439.14496	876.15118
439.19775	884.6037
439.25052	878.32764
439.30331	875.7475
439.35608	878.20026
439.40887	874.22205
439.46164	876.56891
439.51443	876.86621
439.5672	875.27771
439.62	877.85425
439.67276	876.55383
439.72556	881.52325
439.77832	876.19623
439.83112	873.64075
439.88388	880.30292
439.93668	886.6662
439.98944	879.22131
440.04224	880.69855
440.095	877.47351
440.1478	872.84601
440.20056	872.63574
440.25336	880.58783
440.30612	874.09637
440.35892	878.20538
440.41168	877.3573
440.46445	886.12469
440.51724	880.45056
440.57001	882.65088
440.6228	877.33252
440.67557	879.63336
440.72836	880.2207
440.78113	878.00323
440.83392	875.49487
440.88669	880.31451
440.93948	889.28375
440.99225	879.64124
441.04504	879.87158
441.09781	875.70319
441.1506	873.15869
441.20337	883.03687
441.25616	886.50806
441.30893	877.15002
441.36172	880.73468
441.41449	882.15106
441.46729	883.06506
441.52005	882.85236
441.57285	879.70337
441.62561	880.30652
441.67841	887.72754
441.73117	884.56494
441.78397	883.81866
441.83673	878.57898
441.88953	876.1781
441.94229	874.06537
441.99509	877.85541
442.04785	878.02985
442.10065	887.64789
442.15341	885.50885
442.20621	881.20795
442.25897	877.80585
442.31174	876.99231
442.36453	882.89911
442.4173	883.88892
442.47009	881.6084
442.52286	881.02759
442.57565	882.24561
442.62842	881.25018
442.68121	885.20551
442.73398	882.98773
442.78677	878.81146
442.83954	879.44434
442.89233	877.18524
442.9451	877.60883
442.99789	884.79346
443.05066	880.98199
443.10345	877.67224
443.15622	882.20111
443.20901	877.16223
443.26178	878.88043
443.31458	884.05188
443.36734	881.8197
443.42014	882.61414
443.4729	876.27802
443.5257	878.8548
443.57846	880.50323
443.63126	881.77399
443.68402	882.01233
443.73682	881.46973
443.78958	878.12817
443.84238	879.69147
443.89514	876.75952
443.94794	876.56842
444.0007	879.43146
444.0535	883.00018
444.10626	881.64038
444.15906	884.81006
444.21182	881.37225
444.26459	882.92194
444.31738	877.73566
444.37015	878.24463
444.42294	880.92145
444.47571	881.0083
444.5285	879.30518
444.58127	880.97052
444.63406	876.68799
444.68683	874.32385
444.73962	875.62817
444.79239	880.12061
444.84518	880.2691
444.89795	882.16925
444.95074	878.57263
445.00351	879.07288
445.0563	880.3316
445.10907	882.45569
445.16187	881.64429
445.21463	879.07404
445.26743	878.78906
445.32019	878.27234
445.37299	879.6734
445.42575	883.69281
445.47855	883.61041
445.53131	877.37097
445.58411	880.0531
445.63687	885.74036
445.68967	882.49457
445.74243	877.96069
445.79523	882.86407
445.84799	878.34857
445.90079	877.55847
445.95355	880.64948
446.00635	876.07861
446.05911	877.46588
446.11191	880.42029
446.16467	881.22833
446.21744	878.26434
446.27023	877.72388
446.323	875.89178
446.37579	877.19232
446.42856	884.75189
446.48135	885.87463
446.53412	879.88184
446.58691	877.91321
446.63968	879.93054
446.69247	880.74091
446.74524	882.62598
446.79803	883.06104
446.8508	883.73401
446.90359	880.1875
446.95636	877.13544
447.00916	875.33948
447.06192	880.08002
447.11472	882.65662
447.16748	879.37317
447.22028	878.37756
447.27304	881.60022
447.32584	880.57056
447.3786	875.75458
447.4314	880.05255
447.48416	880.95544
447.53696	880.65753
447.58972	879.67725
447.64252	878.79401
447.69528	877.47382
447.74808	880.25647
447.80084	881.54535
447.85364	882.79272
447.9064	880.64459
447.9592	877.56769
448.01196	876.97076
448.06476	878.1037
448.11752	878.80981
448.17029	878.45251
448.22308	882.34125
448.27585	880.0224
448.32864	881.96729
448.38141	874.19586
448.4342	877.9032
448.48697	879.78717
448.53976	877.71613
448.59253	880.06714
448.64532	882.16229
448.69809	883.89502
448.75089	882.57501
448.80365	881.69226
448.85645	881.80682
448.90921	878.37463
448.96201	880.92822
449.01477	879.3241
449.06757	880.92358
449.12033	880.96045
449.17313	878.62231
449.22589	880.61237
449.27869	878.46802
449.33145	880.71204
449.38425	880.1134
449.43701	877.9342
449.48981	876.09937
449.54257	877.50385
449.59537	884.69873
449.64813	879.2337
449.70093	879.95251
449.75369	885.80078
449.80649	882.09711
449.85925	878.06439
449.91205	881.35858
449.96481	881.70123
450.01758	883.77301
450.07037	878.15881
450.12314	884.00995
450.17593	880.81329
450.2287	878.49884
450.28149	876.26105
450.33426	884.95392
450.38705	883.48334
450.43982	880.94818
450.49261	880.48486
450.54538	882.24048
450.59818	880.75726
450.65094	880.29431
450.70374	873.43451
450.7565	881.24469
450.8093	885.45349
450.86206	877.05768
450.91486	883.14886
450.96762	879.81604
451.02042	884.7699
451.07318	881.74365
451.12598	875.88239
451.17874	885.35431
451.23154	878.24963
451.2843	879.25757
451.3371	881.13751
451.38986	880.93054
451.44266	884.28717
451.49542	885.17505
451.54822	878.42273
451.60098	882.45306
451.65378	885.06958
451.70654	878.45178
451.75934	877.90424
451.8121	878.20074
451.8649	880.99792
451.91766	878.93829
451.97043	877.85724
452.02322	881.75287
452.07599	880.81122
452.12878	882.4505
452.18155	878.10559
452.23434	884.54663
452.28711	878.32617
452.3399	882.15491
452.39267	878.35645
452.44547	889.94727
452.49823	874.97467
452.55103	891.79468
452.60379	880.71277
452.65659	883.20184
452.70935	879.38092
452.76215	891.13416
452.81491	878.92822
452.86771	879.94434
452.92047	885.85706
452.97327	881.3927
453.02603	880.86121
453.07883	877.4964
453.13159	885.88733
453.18439	884.81464
453.23715	878.40802
453.28995	878.91711
453.34271	879.95135
453.39551	882.85999
453.44827	880.30438
453.50107	875.14075
453.55383	887.23676
453.60663	878.74658
453.65939	871.48358
453.71219	875.02167
453.76495	879.95526
453.81775	881.83264
453.87051	879.00031
453.92328	882.36926
453.97607	880.88251
454.02884	879.73541
454.08163	874.07727
454.1344	879.39679
454.18719	878.76709
454.23996	874.56354
454.29276	878.82751
454.34552	876.75293
454.39832	885.60577
454.45108	877.79504
454.50388	887.12634
454.55664	879.8374
454.60944	877.87726
454.6622	877.06567
454.715	880.22467
454.76776	876.20776
454.82056	882.58069
454.87332	885.4798
454.92612	876.75787
454.97888	883.44745
455.03168	883.82312
455.08444	882.1311
455.13724	885.68848
455.19	881.42572
455.2428	881.37152
455.29556	880.34259
455.34836	878.75629
455.40112	876.13348
455.45392	879.42908
455.50668	879.79504
455.55948	884.68231
455.61224	874.22778
455.66504	885.67322
455.7178	881.96539
455.77057	881.96069
455.82336	875.98071
455.87613	883.32971
455.92892	881.65002
455.98169	878.40796
456.03448	884.39954
456.08725	883.86206
456.14005	882.36444
456.19281	875.39948
456.24561	875.77142
456.29837	884.87854
456.35117	878.1955
456.40393	875.48254
456.45673	876.15295
456.50949	879.38776
456.56229	888.87518
456.61505	882.27759
456.66785	875.71503
456.72061	879.17407
456.77341	885.56653
456.82617	877.46338
456.87897	882.44708
456.93173	882.7384
456.98453	885.35016
457.03729	884.09998
457.09009	881.45575
457.14285	886.77148
457.19565	891.71356
457.24841	873.45416
457.30121	882.11285
457.35397	883.9411
457.40677	887.62256
457.45953	884.22736
457.51233	879.70123
457.56509	888.25116
457.61789	879.3631
457.67065	882.86877
457.72342	885.54108
457.77621	881.91595
457.82898	878.02039
457.88177	879.57538
457.93454	887.20966
457.98734	884.7002
458.0401	879.97522
458.0929	883.3974
458.14566	883.42419
458.19846	885.86456
458.25122	881.4931
458.30402	878.19189
458.35678	877.36322
458.40958	883.80396
458.46234	887.4812
458.51514	879.61151
458.5679	886.90198
458.6207	888.8103
458.67346	884.23059
458.72626	879.14893
458.77902	875.60608
458.83182	881.58972
458.88458	879.70471
458.93738	880.81689
458.99014	880.60681
459.04294	884.21399
459.0957	885.31396
459.1485	883.33392
459.20126	878.79382
459.25406	885.72705
459.30682	886.64166
459.35962	884.72333
459.41238	883.22107
459.46518	882.2403
459.51794	882.60291
459.57074	878.4812
459.6235	880.00323
459.67627	886.0799
459.72906	881.80066
459.78183	883.38184
459.83463	892.49652
459.88739	885.79718
459.94019	885.36572
459.99295	887.65674
460.04575	890.2937
460.09851	889.09705
460.15131	886.20831
460.20407	881.68567
460.25687	884.59039
460.30963	885.70074
460.36243	886.54877
460.41519	879.40485
460.46799	880.05426
460.52075	878.17743
460.57355	883.96252
460.62631	881.67291
460.67911	880.81927
460.73187	882.97699
460.78467	886.38654
460.83743	885.77521
460.89023	887.12671
460.94299	892.12445
460.99579	882.51642
461.04855	880.60687
461.10135	891.4649
461.15411	889.0224
461.20691	876.59094
461.25967	878.38379
461.31247	880.16022
461.36523	887.60815
461.41803	888.89532
461.47079	887.74286
461.52359	888.64014
461.57635	885.508
461.62912	885.98358
461.68192	879.77985
461.73468	882.86761
461.78748	881.00928
461.84024	881.53082
461.89304	883.79803
461.9458	886.67285
461.9986	887.57715
462.05136	885.55084
462.10416	886.06439
462.15692	883.51398
462.20972	882.13885
462.26248	879.90204
462.31528	887.01331
462.36804	895.59393
462.42084	889.97614
462.4736	879.66205
462.5264	884.39349
462.57916	886.40515
462.63196	881.77594
462.68472	884.25012
462.73752	879.2785
462.79028	881.71204
462.84308	889.25977
462.89584	885.99768
462.94864	886.39386
463.0014	881.8042
463.0542	888.64331
463.10696	882.99927
463.15976	889.21149
463.21252	887.25696
463.26532	883.40869
463.31808	883.12311
463.37088	886.55609
463.42365	884.69342
463.47641	884.04358
463.52921	881.20276
463.58197	879.1983
463.63477	879.70898
463.68753	885.24707
463.74033	889.48987
463.79309	884.33447
463.84589	884.97223
463.89865	887.75269
463.95145	882.71173
464.00421	884.09558
464.05701	886.74829
464.10977	885.89447
464.16257	882.39929
464.21533	883.22113
464.26813	885.5459
464.32089	888.67413
464.37369	886.7486
464.42645	884.91455
464.47925	884.79462
464.53201	885.61761
464.58481	886.76703
464.63757	880.75348
464.69037	882.42523
464.74313	885.43768
464.79593	878.29987
464.84869	885.94849
464.90149	891.77289
464.95425	886.66602
465.00705	883.64948
465.05981	886.76093
465.11261	890.05139
465.16537	890.6626
465.21817	889.70929
465.27094	887.05334
465.32373	890.37286
465.3765	892.96747
465.42926	887.32507
465.48206	886.51471
465.53482	888.64301
465.58762	885.20172
465.64038	883.41235
465.69318	886.02325
465.74594	887.50977
465.79874	887.50446
465.8515	889.914
465.9043	885.00726
465.95706	887.30524
466.00986	890.99036
466.06262	893.58191
466.11542	894.74689
466.16818	888.65015
466.22098	889.63647
466.27374	889.52063
466.32654	887.73035
466.3793	888.83344
466.4321	886.91992
466.48486	883.64728
466.53766	890.88312
466.59042	899.37262
466.64322	890.84241
466.69598	887.1922
466.74878	891.08478
466.80154	891.55341
466.85434	888.87457
466.9071	883.33893
466.9599	882.82141
467.01266	888.58948
467.06546	893.32837
467.11823	889.77179
467.17102	888.37354
467.22379	890.065
467.27658	887.00018
467.32935	888.46912
467.38211	890.77637
467.43491	890.10522
467.48767	891.10876
467.54047	882.83398
467.59323	878.54767
467.64603	886.13922
467.69879	889.00586
467.75159	885.37469
467.80435	884.99274
467.85715	885.76447
467.90991	888.94196
467.96271	894.3031
468.01547	889.96368
468.06827	891.80518
468.12103	891.17926
468.17383	889.70166
468.22659	893.22821
468.27939	887.80121
468.33215	886.54034
468.38495	890.82581
468.43771	892.38391
468.49051	894.05414
468.54327	889.2265
468.59607	888.63416
468.64883	886.05603
468.70163	887.66406
468.75439	890.19855
468.80719	888.99567
468.85995	884.66418
468.91275	885.14093
468.96552	884.96008
469.01831	880.83496
469.07108	886.51563
469.12387	897.62292
469.17664	889.43091
469.22943	887.75
469.2822	888.89722
469.33496	892.99176
469.38776	893.5578
469.44052	884.74487
469.49332	884.14502
469.54608	885.46106
469.59888	888.35651
469.65164	888.47675
469.70444	886.95355
469.7572	892.2135
469.81	894.77972
469.86276	895.94275
469.91556	887.24963
469.96832	887.6554
470.02112	888.08643
470.07388	888.47205
470.12668	883.65839
470.17944	892.42212
470.23224	887.97266
470.285	881.54028
470.3378	887.22363
470.39056	891.16608
470.44336	889.86462
470.49612	890.17761
470.54892	888.84857
470.60168	890.61249
470.65448	892.33704
470.70724	887.59058
470.76004	886.34491
470.81281	884.80963
470.8656	884.48871
470.91837	892.67822
470.97116	891.21124
471.02393	886.67004
471.07672	891.93976
471.12949	888.53247
471.18225	893.74976
471.23505	891.23468
471.28781	882.82043
471.34061	882.53009
471.39337	879.69513
471.44617	884.383
471.49893	885.74701
471.55173	887.95435
471.60449	894.85297
471.65729	896.63428
471.71005	897.41931
471.76285	883.85126
471.81561	884.88428
471.86841	889.31732
471.92117	887.34326
471.97397	894.25763
472.02673	900.16797
472.07953	892.64417
472.13229	889.01483
472.18509	889.86578
472.23785	883.98956
472.29065	894.17224
472.34341	885.06177
472.39621	890.53809
472.44897	894.64862
472.50177	898.49713
472.55453	889.46613
472.60733	890.60541
472.6601	891.57166
472.71289	895.05963
472.76566	896.50507
472.81845	894.92902
472.87122	895.94525
472.92401	903.95758
472.97678	887.29065
473.02957	882.02667
473.08234	895.27325
473.1351	889.21021
473.1879	887.71051
473.24066	890.32452
473.29346	891.10187
473.34622	886.21893
473.39902	891.96588
473.45178	888.58398
473.50458	894.51984
473.55734	902.45959
473.61014	896.28595
473.6629	886.45789
473.7157	895.36182
473.76846	898.94574
473.82126	889.37512
473.87402	889.13031
473.92682	886.34436
473.97958	885.22034
474.03238	888.47931
474.08514	887.23792
474.13794	890.98657
474.1907	892.60486
474.2435	884.4837
474.29626	889.97015
474.34906	894.53723
474.40182	904.90259
474.45462	900.76697
474.50739	890.35175
474.56018	898.55634
474.61295	891.73987
474.66574	898.13727
474.71851	904.16333
474.7713	896.67377
474.82407	896.67444
474.87686	896.63922
474.92963	893.1684
474.98242	892.79578
475.03519	899.02954
475.08795	892.79688
475.14075	897.05518
475.19351	893.10986
475.24631	891.19922
475.29907	891.70178
475.35187	891.92242
475.40463	886.91046
475.45743	891.34796
475.51019	893.61804
475.56299	885.37988
475.61575	895.81964
475.66855	897.22095
475.72131	891.56451
475.77411	896.10645
475.82687	894.6839
475.87967	889.80518
475.93243	895.95715
475.98523	893.30383
476.03799	889.84076
476.09079	891.55798
476.14355	895.07367
476.19635	898.13519
476.24911	897.16388
476.30191	892.76672
476.35468	890.00922
476.40747	892.9776
476.46024	897.11682
476.51303	889.36401
476.5658	885.98376
476.61859	898.0968
476.67136	905.51526
476.72415	900.29425
476.77692	892.45862
476.82971	891.85864
476.88248	895.28503
476.93524	895.52771
476.98804	895.59058
477.0408	900.61298
477.0936	903.58447
477.14636	897.94061
477.19916	893.04572
477.25192	887.70135
477.30472	895.13275
477.35748	900.29016
477.41028	898.28204
477.46304	896.27405
477.51584	895.48285
477.5686	896.742
477.6214	892.5166
477.67416	893.91876
477.72696	891.14642
477.77972	895.22467
477.83252	894.82874
477.88528	895.93774
477.93808	891.27124
477.99084	894.33777
478.04364	889.14148
478.09641	896.4035
478.1492	895.1795
478.20197	898.27649
478.25476	894.45605
478.30753	886.70514
478.36032	898.89941
478.41309	896.91205
478.46588	896.84778
478.51865	892.06274
478.57144	896.53351
478.62421	895.64154
478.677	894.63031
478.72977	901.02582
478.78256	901.08276
478.83533	896.72949
478.88809	896.85864
478.94089	894.43073
478.99365	898.99426
479.04645	901.81458
479.09921	897.25934
479.15201	897.17401
479.20477	903.22992
479.25757	900.62738
479.31033	896.79651
479.36313	901.35638
479.41589	904.33679
479.46869	896.40948
479.52145	889.45319
479.57425	890.3374
479.62701	898.36932
479.67981	899.36633
479.73257	896.27295
479.78537	900.67346
479.83813	900.7063
479.89093	892.44806
479.9437	889.82422
479.99649	892.11713
480.04926	896.34534
480.10205	900.01703
480.15482	897.47498
480.20761	889.24274
480.26038	891.77148
480.31317	902.01013
480.36594	898.43683
480.41873	895.93896
480.4715	902.3111
480.52429	900.43677
480.57706	892.50116
480.62985	891.00494
480.68262	892.00818
480.73541	894.75635
480.78818	901.64972
480.84094	899.22156
480.89374	893.07776
480.9465	896.85913
480.9993	896.89172
481.05206	891.76312
481.10486	895.25977
481.15762	899.3869
481.21042	894.94324
481.26318	896.43311
481.31598	895.26166
481.36874	896.85858
481.42154	897.61163
481.4743	896.41309
481.5271	894.05731
481.57986	892.64063
481.63266	893.26068
481.68542	897.44421
481.73822	893.03217
481.79099	892.51703
481.84378	895.26331
481.89655	897.11761
481.94934	898.26465
482.00211	895.43805
482.0549	899.46509
482.10767	894.4657
482.16046	897.16956
482.21323	893.80475
482.26602	894.02045
482.31879	900.55316
482.37158	905.09521
482.42435	895.89355
482.47714	890.7713
482.52991	896.55151
482.5827	897.21686
482.63547	900.41803
482.68826	896.35895
482.74103	899.73517
482.79379	902.62848
482.84659	900.99683
482.89935	899.91827
482.95215	896.52777
483.00491	902.91827
483.05771	905.04602
483.11047	898.87463
483.16327	898.63904
483.21603	905.27374
483.26883	900.87067
483.32159	899.54169
483.37439	899.01764
483.42715	896.47156
483.47995	893.45697
483.53271	898.25201
483.58551	898.99884
483.63828	898.78607
483.69107	899.58435
483.74384	899.78741
483.79663	905.84839
483.8494	902.40735
483.90219	906.61346
483.95496	893.77203
484.00775	900.33698
484.06052	903.12708
484.11331	899.08643
484.16608	897.86938
484.21887	900.776
484.27164	904.29602
484.32443	903.06836
484.3772	904.09857
484.42999	897.30225
484.48276	912.57208
484.53555	898.86273
484.58832	903.03345
484.64108	905.14325
484.69388	905.75031
484.74664	903.07648
484.79944	901.88739
484.8522	904.09882
484.905	904.76434
484.95776	896.89801
485.01056	905.6637
485.06332	902.53784
485.11612	909.88147
485.16888	903.63715
485.22168	900.90942
485.27444	902.73523
485.32724	904.74689
485.38	914.073
485.4328	902.04205
485.48557	907.73065
485.53836	914.26434
485.59113	915.30927
485.64392	917.8075
485.69669	916.61542
485.74948	897.46112
485.80225	906.82428
485.85504	907.50476
485.90781	914.34814
485.9606	915.76227
486.01337	926.14227
486.06616	911.58972
486.11893	907.5719
486.17172	911.19733
486.22449	902.50031
486.27728	911.11932
486.33005	903.31769
486.38284	914.0481
486.43561	906.64435
486.4884	913.70129
486.54117	905.28064
486.59393	920.52264
486.64673	904.49963
486.69949	896.9212
486.75229	915.63519
486.80505	914.45911
486.85785	916.16071
486.91061	919.80939
486.96341	910.37616
487.01617	911.12122
487.06897	925.16467
487.12173	905.82318
487.17453	905.69312
487.22729	915.92853
487.28009	911.4588
487.33286	911.08612
487.38565	917.22858
487.43842	920.01422
487.49121	915.5683
487.54398	912.4646
487.59677	919.22937
487.64954	922.10742
487.70233	923.45703
487.7551	917.01654
487.80789	917.01654
487.86066	917.01654
487.91345	917.01654
487.96622	917.01654
488.01901	917.01654
488.07178	917.01654
488.12457	917.01654
488.17734	917.01654
488.23013	921.02576
488.2829	915.55768
488.33569	917.26306
488.38846	913.11163
488.44125	913.36554
488.49402	919.38916
488.54678	915.35107
488.59958	915.98737
488.65234	912.13696
488.70514	916.02386
488.7579	923.93799
488.8107	914.01532
488.86346	911.62646
488.91626	917.71857
488.96902	918.5448
489.02182	921.29059
489.07458	920.04596
489.12738	928.91425
489.18015	939.15137
489.23294	949.46851
489.28571	981.04962
489.3385	1018.6564
489.39127	1073.6234
489.44406	1153.3722
489.49683	1227.2823
489.54962	1314.2209
489.60239	1410.8883
489.65518	1529.6632
489.70795	1681.3932
489.76074	1763.7852
489.81351	1769.4436
489.8663	1753.7891
489.91907	1745.3617
489.97186	1729.6162
490.02463	1722.4266
490.07742	1743.4508
490.13019	1744.5081
490.18298	1734.4103
490.23575	1719.5222
490.28854	1680.4746
490.34131	1689.2084
490.39407	1707.2136
490.44687	1687.0964
490.49963	1669.1595
490.55243	1683.3164
490.60519	1680.3322
490.65799	1680.5906
490.71075	1689.6747
490.76355	1707.4154
490.81631	1708.4879
490.86911	1704.9656
490.92188	1698.4508
490.97467	1686.4384
491.02744	1689.075
491.08023	1702.8674
491.133	1716.5187
491.18579	1688.6544
491.23856	1678.8584
491.29135	1731.0358
491.34412	1749.4585
491.39691	1731.1288
491.44968	1759.1622
491.50247	1798.2819
491.55524	1852.8065
491.60803	1913.0255
491.6608	2018.6169
491.71359	2132.8376
491.76636	2218.9182
491.81915	2224.2383
491.87192	2193.1609
491.92471	2177.2427
491.97748	2119.0615
492.03027	2106.7573
492.08304	2061.2336
492.13583	2062.2185
492.1886	2024.6803
492.24139	1982.0422
492.29416	1956.6764
492.34692	1912.0114
492.39972	1832.7671
492.45248	1802.9314
492.50528	1758.4814
492.55804	1746.1394
492.61084	1714.235
492.6636	1680.3678
492.7164	1650.1418
492.76917	1629.0647
492.82196	1589.8539
492.87473	1577.3839
492.92752	1557.8364
492.98029	1577.2427
493.03308	1571.373
493.08585	1580.8169
493.13864	1565.936
493.19141	1540.9642
493.2442	1551.8796
493.29697	1522.5767
493.34976	1515.7064
493.40253	1515.8835
493.45532	1504.4497
493.50809	1517.376
493.56088	1502.8918
493.61365	1515.1044
493.66644	1510.0034
493.71921	1505.9528
493.772	1513.8947
493.82477	1532.0472
493.87756	1558.6552
493.93033	1496.5229
493.98312	1502.7019
494.03589	1530.8184
494.08868	1513.1141
494.14145	1506.6608
494.19424	1521.1716
494.24701	1516.1405
494.29977	1503.2019
494.35257	1485.7291
494.40533	1471.2119
494.45813	1470.6157
494.51089	1489.9421
494.56369	1509.5315
494.61646	1479.2256
494.66925	1464.7201
494.72202	1461.424
494.77481	1493.2489
494.82758	1456.9993
494.88037	1458.2548
494.93314	1464.4257
494.98593	1466.4974
495.0387	1439.0114
495.09149	1451.8796
495.14426	1457.3948
495.19705	1463.7791
495.24982	1430.1522
495.30261	1443.3253
495.35538	1463.5126
495.40817	1475.3146
495.46094	1462.4058
495.51373	1431.2402
495.5665	1434.9563
495.61929	1460.2234
495.67206	1460.7896
495.72485	1453.6644
495.77762	1475.0737
495.83041	1460.4288
495.88318	1460.7772
495.93597	1449.8905
495.98874	1455.082
496.04153	1462.7145
496.0943	1463.6095
496.14709	1479.045
496.19986	1484.2124
496.25262	1474.7039
496.30542	1487.5236
496.35818	1497.3083
496.41098	1500.9742
496.46375	1524.2614
496.51654	1528.9603
496.56931	1510.6957
496.6221	1481.6841
496.67487	1487.6868
496.72766	1506.6964
496.78043	1506.8995
496.83322	1506.8033
496.88599	1491.9885
496.93878	1477.4503
496.99155	1488.9088
497.04434	1501.8767
497.09711	1495.5886
497.1499	1496.8407
497.20267	1497.5321
497.25546	1534.4216
497.30823	1519.2889
497.36102	1507.7123
497.41379	1519.2339
497.46658	1503.6307
497.51935	1503.0854
497.57214	1524.5571
497.62491	1544.2377
497.6777	1564.1307
497.73047	1571.1934
497.78326	1574.2954
497.83603	1576.5807
497.88882	1586.457
497.94159	1577.4705
497.99438	1566.0691
498.04715	1587.1766
498.09991	1602.0116
498.15271	1637.9576
498.20547	1654.5421
498.25827	1643.3246
498.31104	1648.5273
498.36383	1689.1115
498.4166	1710.7965
498.46939	1725.9242
498.52216	1747.792
498.57495	1791.1382
498.62772	1808.1725
498.68051	1819.4034
498.73328	1867.469
498.78607	1887.8612
498.83884	1944.392
498.89163	1948.025
498.9444	1963.5974
498.99719	2016.187
499.04996	2016.8972
499.10275	2023.6412
499.15552	2092.3013
499.20831	2095.2649
499.26108	2153.7021
499.31387	2167.1768
499.36664	2202.5393
499.41943	2231.4492
499.4722	2283.9519
499.52499	2297.7446
499.57776	2345.291
499.63055	2375.6953
499.68332	2431.0659
499.73611	2473.7781
499.78888	2512.2783
499.84167	2511.2432
499.89444	2567.1855
499.94724	2600.114
500	2642.0854
