#Wave		#Intensity
3204.356445	527.063538
3203.525391	544.157532
3202.693359	598.191895
3201.861328	521.197449
3201.028320	461.313507
3200.196289	452.697632
3199.363281	526.638733
3198.531250	540.784973
3197.698242	546.389343
3196.865234	497.930817
3196.032227	517.764526
3195.199219	469.326202
3194.365234	477.782349
3193.532227	540.261963
3192.698242	562.919006
3191.864258	480.393799
3191.031250	528.632141
3190.197266	440.455750
3189.362305	480.161407
3188.528320	505.650574
3187.694336	528.291199
3186.859375	462.890228
3186.024414	562.193115
3185.189453	513.841125
3184.354492	539.304260
3183.519531	542.055237
3182.684570	459.679535
3181.849609	482.301941
3181.013672	530.446594
3180.177734	499.163300
3179.341797	521.768372
3178.506836	547.201355
3177.669922	487.582672
3176.833984	538.521912
3175.998047	541.268921
3175.161133	521.347717
3174.325195	501.432922
3173.488281	456.032074
3172.651367	518.263428
3171.814453	549.327209
3170.977539	486.953827
3170.139648	523.674011
3169.302734	506.608246
3168.464844	469.739655
3167.626953	520.591309
3166.789063	475.245819
3165.951172	480.825928
3165.113281	475.092499
3164.275391	534.392822
3163.436523	477.766235
3162.598633	503.128204
3161.759766	486.090393
3160.920898	491.663300
3160.082031	471.807587
3159.243164	516.927307
3158.404297	514.019653
3157.564453	491.346069
3156.725586	485.620056
3155.885742	505.302124
3155.045898	454.416290
3154.206055	544.647156
3153.366211	521.986877
3152.526367	521.902649
3151.685547	510.535889
3150.845703	530.194824
3150.004883	499.092224
3149.164063	510.288788
3148.323242	490.474701
3147.482422	498.850677
3146.641602	470.591064
3145.800781	529.681702
3144.958984	464.805206
3144.118164	487.262573
3143.276367	481.551758
3142.434570	532.155518
3141.592773	534.884827
3140.750977	489.762848
3139.908203	506.569458
3139.066406	461.466583
3138.223633	464.205475
3137.380859	509.137177
3136.538086	497.805176
3135.695313	452.732758
3134.852539	548.252441
3134.009766	505.997498
3133.166016	489.051971
3132.323242	452.440582
3131.479492	519.801208
3130.635742	474.768799
3129.791992	514.015808
3128.948242	480.232300
3128.104492	505.426117
3127.259766	524.996826
3126.416016	463.157715
3125.571289	493.955170
3124.726563	496.681549
3123.881836	507.824005
3123.037109	502.131622
3122.192383	527.293335
3121.346680	473.926544
3120.501953	527.123108
3119.656250	529.841431
3118.810547	532.558838
3117.964844	510.052979
3117.119141	498.762482
3116.273438	523.896240
3115.427734	495.800354
3114.581055	560.135925
3113.734375	515.241882
3112.888672	526.357788
3112.041992	515.075562
3111.194336	514.992371
3110.347656	528.901367
3109.500977	498.038300
3108.653320	489.565369
3107.806641	534.239380
3106.958984	489.407288
3106.111328	461.366669
3105.263672	475.270721
3104.416016	508.737091
3103.567383	514.244568
3102.719727	494.601044
3101.871094	463.788239
3101.022461	463.713348
3100.174805	508.326538
3099.325195	502.659363
3098.476563	466.280884
3097.627930	513.663635
3096.778320	516.371887
3095.929688	496.753265
3095.080078	513.414856
3094.230469	510.542114
3093.380859	488.144501
3092.531250	532.688782
3091.681641	460.101898
3090.831055	535.304810
3089.981445	538.005981
3089.130859	518.409058
3088.280273	509.965271
3087.429688	548.890381
3086.579102	520.943787
3085.728516	529.215698
3084.876953	506.851044
3084.025391	517.906982
3083.174805	548.447266
3082.323242	573.410645
3081.471680	487.042023
3080.620117	492.528656
3079.767578	500.795685
3078.916016	475.679077
3078.063477	511.759125
3077.211914	489.429688
3076.359375	511.593842
3075.506836	475.371826
3074.654297	522.546631
3073.800781	500.229767
3072.948242	500.148956
3072.095703	497.290009
3071.242188	552.763855
3070.388672	508.238403
3069.535156	483.165039
3068.681641	527.508789
3067.828125	516.319885
3066.973633	530.113831
3066.120117	505.053040
3065.265625	468.902069
3064.411133	513.212219
3063.556641	493.713623
3062.702148	515.819641
3061.847656	526.827454
3060.992188	518.425354
3060.137695	515.569702
3059.282227	548.743591
3058.426758	423.960632
3057.571289	515.319885
3056.715820	495.845978
3055.860352	473.608734
3055.004883	487.378204
3054.148438	484.530701
3053.291992	509.367096
3052.436523	520.356201
3051.580078	475.993652
3050.723633	492.518494
3049.866211	522.870544
3049.009766	467.464783
3048.153320	528.232788
3047.295898	503.260925
3046.438477	514.238525
3045.581055	511.391113
3044.723633	475.378693
3043.866211	497.408966
3043.007813	500.091522
3042.150391	430.948456
3041.291992	530.312378
3040.433594	544.034668
3039.576172	485.962585
3038.716797	527.294617
3037.858398	527.209412
3037.000000	474.687744
3036.140625	540.835815
3035.282227	532.471680
3034.422852	502.042389
3033.563477	504.719269
3032.704102	463.273956
3031.844727	474.227631
3030.984375	482.421051
3030.125000	507.149292
3029.264648	493.288330
3028.404297	498.719299
3027.543945	526.187805
3026.683594	517.839355
3025.823242	481.953400
3024.962891	523.179138
3024.101563	506.575775
3023.241211	520.257324
3022.379883	539.438904
3021.518555	528.344482
3020.657227	492.491547
3019.795898	536.426392
3018.933594	508.835114
3018.072266	541.753052
3017.209961	525.168030
3016.347656	555.323486
3015.485352	535.992981
3014.623047	505.675690
3013.760742	511.089539
3012.898438	480.786072
3012.035156	557.621643
3011.172852	497.109375
3010.309570	444.854706
3009.446289	557.351257
3008.583008	529.809875
3007.719727	548.937012
3006.855469	524.150085
3005.992188	537.784302
3005.127930	529.467285
3004.263672	490.980927
3003.400391	521.068665
3002.535156	553.888672
3001.670898	463.326996
3000.806641	523.557068
2999.941406	485.102722
2999.077148	485.024261
2998.211914	564.400208
2997.346680	556.090881
2996.481445	534.089600
2995.616211	558.649536
2994.750000	501.060425
2993.884766	520.142517
2993.018555	517.321289
2992.152344	481.660431
2991.287109	530.835266
2990.419922	552.635986
2989.553711	489.632904
2988.687500	514.168152
2987.820313	519.553955
2986.954102	565.948853
2986.086914	549.455627
2985.219727	511.102417
2984.352539	532.881531
2983.485352	521.866211
2982.617188	502.658936
2981.750000	502.577606
2980.881836	445.146210
2980.013672	521.528687
2979.145508	521.444275
2978.277344	504.982147
2977.409180	515.817200
2976.541016	540.292542
2975.671875	559.303284
2974.803711	488.288269
2973.934570	529.120667
2973.065430	556.304932
2972.196289	569.847656
2971.326172	485.246277
2970.457031	506.973053
2969.587891	534.143250
2968.717773	531.332031
2967.847656	457.688934
2966.977539	550.227417
2966.107422	514.733459
2965.237305	536.434326
2964.366211	539.070068
2963.496094	470.929474
2962.625000	503.513611
2961.753906	508.874664
2960.882813	541.442078
2960.011719	516.871094
2959.140625	546.706726
2958.269531	562.935242
2957.397461	576.439392
2956.525391	549.159973
2955.654297	546.352966
2954.782227	546.264526
2953.909180	502.699432
2953.037109	532.503479
2952.165039	497.103912
2951.291992	507.887360
2950.418945	505.089630
2949.546875	545.734314
2948.673828	502.211517
2947.799805	507.558655
2946.926758	534.614319
2946.053711	504.681061
2945.179688	558.857361
2944.306641	512.655090
2943.432617	507.148041
2942.558594	531.470215
2941.683594	512.406189
2940.809570	552.983826
2939.935547	525.791626
2939.060547	498.608276
2938.185547	509.365112
2937.311523	541.790039
2936.436523	549.827881
2935.560547	509.117798
2934.685547	555.065186
2933.810547	560.389709
2932.934570	554.885498
2932.058594	525.026123
2931.182617	516.823486
2930.306641	508.623474
2929.430664	486.901093
2928.554688	508.458801
2927.677734	484.039307
2926.801758	529.923706
2925.924805	562.276978
2925.047852	535.157776
2924.170898	537.773499
2923.293945	537.686401
2922.416016	480.867767
2921.539063	545.615540
2920.661133	448.304504
2919.784180	513.036560
2918.906250	515.653198
2918.028320	507.471771
2917.149414	531.679504
2916.271484	515.402771
2915.392578	499.131256
2914.514648	526.026123
2913.635742	512.455261
2912.756836	528.552490
2911.877930	488.022980
2910.999023	512.206360
2910.119141	541.772644
2909.240234	501.260651
2908.360352	544.291687
2907.480469	525.344971
2906.600586	533.340820
2905.720703	541.334045
2904.840820	508.933167
2903.960938	514.235413
2903.080078	543.762939
2902.199219	505.994446
2901.319336	559.732971
2900.438477	532.736450
2899.556641	473.466797
2898.675781	511.046112
2897.794922	559.370422
2896.913086	518.947083
2896.031250	569.942810
2895.150391	478.459381
2894.268555	556.320496
2893.385742	556.230347
2892.503906	491.660217
2891.622070	510.384216
2890.739258	555.960083
2889.856445	571.982178
2888.973633	518.190979
2888.090820	587.903809
2887.208008	523.391174
2886.325195	499.153778
2885.441406	512.488831
2884.558594	547.281616
2883.674805	539.145996
2882.791016	461.283997
2881.907227	482.660828
2881.023438	541.564941
2880.138672	522.713135
2879.254883	525.308594
2878.370117	533.262573
2877.485352	527.817627
2876.601563	525.053223
2875.715820	514.254517
2874.831055	554.340820
2873.946289	484.634918
2873.060547	572.900879
2872.175781	548.718018
2871.290039	527.219177
2870.404297	500.375671
2869.518555	548.451233
2868.631836	508.238312
2867.746094	481.410889
2866.859375	459.940277
2865.973633	577.505798
2865.086914	534.640930
2864.200195	486.444397
2863.313477	515.761230
2862.425781	502.318115
2861.539063	528.951416
2860.651367	539.549866
2859.764648	579.521484
2858.876953	528.694214
2857.989258	557.975708
2857.101563	523.184204
2856.212891	515.092773
2855.325195	539.025269
2854.436523	536.269897
2853.547852	506.839600
2852.659180	501.423126
2851.770508	552.009338
2850.881836	549.253601
2849.993164	538.501160
2849.103516	535.748413
2848.214844	604.951111
2847.325195	554.226563
2846.435547	543.480225
2845.545898	559.374207
2844.656250	527.324463
2843.765625	535.227417
2842.875977	521.828674
2841.985352	511.096252
2841.094727	534.967102
2840.204102	510.930511
2839.313477	574.703613
2838.422852	468.201080
2837.531250	513.341797
2836.640625	502.621033
2835.749023	510.516357
2834.857422	513.092041
2833.965820	518.325012
2833.074219	544.817383
2832.182617	534.100159
2831.290039	526.043213
2830.398438	573.772217
2829.505859	499.313354
2828.613281	541.720215
2827.720703	565.527893
2826.828125	514.998230
2825.934570	538.802490
2825.041992	525.446228
2824.148438	482.907593
2823.254883	514.664185
2822.361328	543.757935
2821.467773	517.149231
2820.574219	525.020203
2819.680664	535.539795
2818.786133	591.118774
2817.891602	580.421570
2816.998047	537.929077
2816.103516	556.388062
2815.208008	524.509338
2814.313477	548.261719
2813.418945	521.690979
2812.523438	540.140625
2811.627930	521.521729
2810.732422	516.143311
2809.836914	521.352539
2808.941406	566.250427
2808.045898	544.993713
2807.149414	531.679443
2806.253906	531.593201
2805.357422	489.197906
2804.460938	531.420654
2803.564453	531.334412
2802.667969	539.177307
2801.770508	523.234192
2800.874023	549.570984
2799.976563	504.572235
2799.079102	509.772949
2798.182617	588.916687
2797.284180	567.697510
2796.386719	528.004944
2795.489258	525.279663
2794.590820	564.781921
2793.692383	501.360535
2792.794922	501.279144
2791.896484	530.214478
2790.997070	582.877563
2790.098633	482.575897
2789.200195	514.136780
2788.300781	566.776733
2787.401367	535.055786
2786.501953	534.968933
2785.602539	545.421631
2784.703125	576.946655
2783.803711	545.244568
2782.903320	526.720825
2782.003906	552.967102
2781.103516	576.572083
2780.203125	529.096680
2779.302734	581.648682
2778.401367	589.448608
2777.500977	531.470032
2776.600586	565.581726
2775.699219	554.969116
2774.797852	541.730225
2773.896484	588.970276
2772.995117	538.925415
2772.093750	530.952515
2771.191406	538.750427
2770.289063	575.449707
2769.387695	538.575500
2768.485352	546.368347
2767.583008	551.532288
2766.680664	540.939026
2765.777344	532.974731
2764.875000	514.512695
2763.971680	545.924805
2763.068359	593.071960
2762.165039	511.638306
2761.261719	535.165466
2760.358398	521.963867
2759.455078	597.931824
2758.550781	524.416382
2757.646484	542.682800
2756.742188	508.518677
2755.837891	532.023315
2754.933594	550.279541
2754.029297	539.710327
2753.124023	526.525024
2752.219727	515.963074
2751.314453	542.066040
2750.409180	507.940735
2749.503906	544.507751
2748.598633	494.688690
2747.693359	552.181763
2746.787109	562.558289
2745.880859	554.618530
2744.975586	486.520203
2744.069336	538.746643
2743.163086	562.192810
2742.255859	575.173584
2741.349609	533.256104
2740.442383	574.986694
2739.536133	504.338165
2738.628906	577.412537
2737.721680	543.358826
2736.813477	519.763611
2735.906250	569.296753
2734.999023	503.928528
2734.090820	529.952698
2733.182617	503.764771
2732.274414	532.390198
2731.366211	524.475708
2730.458008	558.306274
2729.549805	534.739197
2728.640625	532.044189
2727.731445	482.412659
2726.823242	539.692932
2725.914063	565.673096
2725.004883	523.879333
2724.094727	573.307068
2723.185547	505.470398
2722.275391	554.885010
2721.365234	554.794861
2720.456055	518.245178
2719.545898	598.879456
2718.634766	505.059723
2717.724609	531.007385
2716.813477	499.690399
2715.903320	523.028381
2714.992188	554.163818
2714.081055	522.858337
2713.169922	569.588806
2712.258789	629.306335
2711.346680	551.203552
2710.435547	532.916748
2709.523438	512.036743
2708.611328	522.348450
2707.699219	532.656860
2706.787109	524.776550
2705.875000	496.118896
2704.961914	560.964722
2704.049805	527.117188
2703.136719	565.974731
2702.223633	524.350037
2701.310547	545.027710
2700.397461	552.723938
2699.483398	539.661377
2698.570313	588.861633
2697.656250	529.111145
2696.742188	541.991394
2695.828125	526.346252
2694.914063	536.630310
2694.000000	471.743134
2693.084961	588.287231
2692.170898	546.733093
2691.255859	520.736877
2690.340820	564.687439
2689.425781	541.286560
2688.510742	523.072266
2687.594727	541.110474
2686.679688	546.199707
2685.763672	538.346252
2684.847656	527.907593
2683.931641	582.156250
2683.015625	605.344055
2682.099609	537.996033
2681.182617	563.769531
2680.266602	537.820984
2679.349609	566.171326
2678.432617	475.609955
2677.515625	586.662476
2676.598633	576.231018
2675.681641	514.131470
2674.763672	576.043518
2673.846680	591.446167
2672.928711	565.526794
2672.010742	588.671814
2671.092773	534.365112
2670.173828	549.764465
2669.255859	498.062317
2668.336914	552.165771
2667.418945	534.017334
2666.500000	513.295471
2665.581055	572.527893
2664.662109	551.806396
2663.742188	564.607178
2662.823242	582.559143
2661.903320	543.805237
2660.983398	507.640717
2660.063477	592.580505
2659.143555	489.443359
2658.223633	499.666077
2657.303711	561.389038
2656.382813	574.171448
2655.461914	540.611572
2654.541016	519.932190
2653.620117	543.009094
2652.699219	519.762939
2651.778320	524.823669
2650.856445	571.038635
2649.935547	583.804810
2649.013672	568.281311
2648.091797	578.472778
2647.169922	539.820007
2646.248047	555.153015
2645.325195	534.504761
2644.403320	536.987061
2643.480469	557.450806
2642.557617	531.675232
2641.634766	546.997009
2640.711914	539.205017
2639.789063	546.818909
2638.865234	592.932373
2637.941406	515.844177
2637.018555	515.760193
2636.094727	556.725037
2635.170898	538.678406
2634.246094	556.543701
2633.322266	551.324463
2632.397461	543.543030
2631.473633	540.891052
2630.548828	481.852875
2629.624023	499.712799
2628.699219	558.562317
2627.773438	481.617462
2626.848633	525.082458
2625.922852	496.826355
2624.997070	540.274658
2624.071289	542.746765
2623.145508	540.098633
2622.219727	580.959351
2621.293945	537.363831
2620.367188	583.328552
2619.440430	529.514648
2618.513672	590.811340
2617.586914	547.242554
2616.660156	542.039856
2615.733398	513.831421
2614.805664	539.307251
2613.878906	546.886047
2612.951172	518.690552
2612.023438	531.379578
2611.095703	579.824524
2610.166992	533.760254
2609.239258	589.849426
2608.310547	576.988098
2607.382813	500.315216
2606.454102	495.129272
2605.525391	538.429138
2604.596680	591.920410
2603.666992	551.008484
2602.738281	512.660461
2601.808594	502.376343
2600.878906	566.037415
2599.949219	550.649353
2599.019531	578.597351
2598.089844	553.018372
2597.159180	494.322906
2596.229492	570.671570
2595.298828	532.370178
2594.368164	519.549316
2593.437500	590.763733
2592.506836	547.385742
2591.575195	560.024353
2590.644531	514.120361
2589.712891	554.752319
2588.781250	539.395935
2587.849609	564.747070
2586.917969	567.198486
2585.986328	556.933716
2585.053711	597.525452
2584.122070	559.294373
2583.189453	584.621460
2582.256836	541.322083
2581.324219	553.938782
2580.391602	594.497925
2579.458008	566.459045
2578.525391	591.764282
2577.591797	576.431702
2576.658203	548.409485
2575.724609	515.319275
2574.791016	527.925781
2573.857422	593.819641
2572.922852	530.290894
2571.989258	568.257324
2571.054688	570.701111
2570.120117	530.031433
2569.185547	567.979309
2568.250000	534.929016
2567.315430	572.863647
2566.379883	552.495178
2565.445313	567.608887
2564.509766	509.244507
2563.574219	557.291138
2562.638672	569.863892
2561.702148	564.706299
2560.766602	587.401306
2559.830078	569.585022
2558.893555	534.057068
2557.957031	582.052490
2557.020508	587.018066
2556.083984	503.437653
2555.146484	639.944458
2554.209961	579.143738
2553.272461	553.763245
2552.334961	528.391052
2551.397461	545.999268
2550.459961	566.129028
2549.521484	553.401917
2548.583984	563.417786
2547.645508	558.273560
2546.707031	543.028198
2545.768555	598.496216
2544.830078	560.525208
2543.891602	530.140015
2542.952148	522.481323
2542.012695	575.392700
2541.074219	562.682617
2540.134766	552.499451
2539.194336	547.364441
2538.254883	532.143066
2537.315430	547.185791
2536.375000	554.660034
2535.434570	534.403320
2534.494141	559.519653
2533.553711	579.587952
2532.613281	604.688660
2531.672852	541.611816
2530.731445	571.747986
2529.791016	556.544861
2528.849609	584.150757
2527.908203	541.258240
2526.966797	573.891785
2526.024414	578.831421
2525.083008	548.541931
2524.140625	563.547363
2523.198242	510.631439
2522.255859	593.543579
2521.313477	553.212952
2520.371094	563.179382
2519.428711	532.922058
2518.485352	570.535583
2517.541992	593.059082
2516.598633	525.123352
2515.655273	567.744019
2514.711914	550.069153
2513.768555	557.513306
2512.824219	562.444092
2511.879883	537.247192
2510.936523	594.891541
2509.992188	582.245972
2509.046875	536.984009
2508.102539	559.476013
2507.158203	561.893127
2506.212891	559.293274
2505.267578	539.140869
2504.322266	536.545593
2503.376953	554.005615
2502.431641	538.876709
2501.485352	571.366577
2500.540039	583.801147
2499.593750	551.138489
2498.647461	541.029419
2497.701172	586.019409
2496.754883	565.892090
2495.807617	490.693512
2494.861328	625.782288
2493.914063	545.593018
2492.966797	570.526978
2492.019531	572.935669
2491.072266	585.349487
2490.125000	572.748413
2489.176758	547.648071
2488.229492	562.560181
2487.281250	567.467957
2486.333008	559.876892
2485.384766	574.779663
2484.436523	559.693909
2483.487305	534.620178
2482.538086	537.030640
2481.589844	531.947998
2480.640625	556.831055
2479.691406	476.849121
2478.742188	544.168152
2477.791992	566.541199
2476.842773	563.953186
2475.892578	563.861023
2474.942383	588.714355
2473.992188	563.676697
2473.041992	538.647156
2472.090820	560.999084
2471.140625	613.258728
2470.189453	578.263245
2469.238281	535.802917
2468.287109	478.406219
2467.335938	575.488403
2466.384766	530.558350
2465.433594	557.866882
2464.481445	600.106812
2463.529297	577.601746
2462.577148	530.211426
2461.625000	550.035522
2460.672852	562.387817
2459.719727	589.664185
2458.767578	564.691528
2457.814453	539.726929
2456.861328	544.612305
2455.908203	584.305725
2454.955078	539.462158
2454.000977	579.143433
2453.047852	574.078369
2452.093750	583.923584
2451.139648	601.218689
2450.185547	516.665405
2449.231445	531.482300
2448.277344	546.294312
2447.322266	543.722168
2446.368164	558.527283
2445.413086	486.459747
2444.458008	558.344543
2443.502930	580.583374
2442.546875	555.681152
2441.591797	567.991821
2440.635742	545.579712
2439.680664	617.395996
2438.724609	582.587646
2437.768555	550.269348
2436.811523	540.266174
2435.855469	542.655640
2434.898438	545.044312
2433.942383	572.202881
2432.985352	554.772644
2432.028320	542.300537
2431.070313	532.308411
2430.113281	532.221252
2429.156250	606.385437
2428.198242	551.844177
2427.240234	556.702332
2426.282227	583.823303
2425.324219	561.466980
2424.365234	563.848083
2423.407227	613.208069
2422.448242	506.802734
2421.489258	603.120117
2420.530273	612.906982
2419.571289	570.799744
2418.612305	548.471008
2417.652344	538.500488
2416.693359	548.291443
2415.733398	555.609802
2414.773438	560.456787
2413.813477	565.302185
2412.853516	555.336975
2411.892578	584.859131
2410.932617	562.557190
2409.971680	629.072815
2409.010742	532.774414
2408.049805	574.611633
2407.087891	581.914734
2406.126953	567.027466
2405.166016	559.539795
2404.205078	549.590027
2403.242188	571.677185
2402.281250	561.728638
2401.318359	544.393433
2400.355469	564.007568
2399.392578	519.590027
2398.431641	541.663879
2397.468750	551.421997
2396.505859	575.944702
2395.542969	597.998474
2394.578125	565.914063
2393.615234	590.422302
2392.652344	550.970520
2391.687500	573.013855
2390.724609	558.166687
2389.759766	594.952454
2388.796875	597.313049
2387.832031	572.638428
2386.867188	575.001892
2385.902344	540.511536
2384.937500	557.618225
2383.972656	557.526855
2383.007813	547.612854
2382.042969	525.425781
2381.078125	574.436890
2380.111328	581.706116
2379.146484	557.070251
2378.179688	552.071655
2377.214844	610.859192
2376.248047	500.380920
2375.281250	549.347839
2374.314453	563.970093
2373.347656	581.039124
2372.380859	607.907532
2371.414063	575.947021
2370.447266	529.294312
2369.480469	524.307495
2368.511719	546.268250
2367.544922	538.830994
2366.576172	580.372803
2365.609375	550.896545
2364.640625	594.870728
2363.671875	577.639832
2362.703125	553.072876
2361.736328	567.663147
2360.767578	525.980896
2359.796875	582.153137
2358.828125	567.383972
2357.859375	545.283997
2356.890625	552.529053
2355.919922	557.327271
2354.951172	523.019653
2353.980469	559.588135
2353.011719	564.382813
2352.041016	574.061523
2351.070313	534.888733
2350.099609	564.105225
2349.128906	583.545593
2348.158203	568.802612
2347.187500	583.354248
2346.216797	556.414001
2345.244141	595.362976
2344.273438	580.627625
2343.302734	551.261841
2342.330078	595.070068
2341.357422	558.396240
2340.386719	589.998840
2339.414063	543.587402
2338.441406	531.312195
2337.468750	562.903564
2336.496094	548.192749
2335.523438	633.363281
2334.550781	518.785583
2333.576172	579.580811
2332.603516	620.877502
2331.628906	606.169189
2330.656250	581.729553
2329.681641	593.802185
2328.708984	540.174011
2327.734375	527.921265
2326.759766	566.753357
2325.785156	583.684448
2324.810547	588.451965
2323.835938	576.199280
2322.861328	529.919128
2321.884766	605.175232
2320.910156	544.325317
2319.935547	624.413635
2318.958984	532.000549
2317.984375	580.489746
2317.007813	570.680786
2316.031250	568.159058
2315.054688	529.223694
2314.078125	558.263611
2313.101563	553.318359
2312.125000	567.786133
2311.148438	591.953308
2310.171875	582.153564
2309.193359	620.861877
2308.216797	572.263062
2307.240234	540.651306
2306.261719	555.106812
2305.283203	581.675842
2304.306641	564.617554
2303.328125	608.136230
2302.349609	557.164795
2301.371094	523.164490
2300.392578	595.728394
2299.414063	600.473083
2298.433594	554.378052
2297.455078	578.491699
2296.476563	554.195984
2295.496094	604.918091
2294.517578	607.238037
2293.537109	575.692932
2292.556641	573.179871
2291.576172	611.775085
2290.595703	519.802490
2289.615234	621.243286
2288.634766	565.552734
2287.654297	567.876282
2286.673828	604.024475
2285.693359	587.015381
2284.710938	545.858765
2283.730469	572.333069
2282.748047	586.726135
2281.767578	574.559143
2280.785156	543.086426
2279.802734	550.237183
2278.820313	576.688904
2277.837891	571.769104
2276.855469	576.499451
2275.873047	564.346008
2274.890625	585.955322
2273.906250	554.516785
2272.923828	595.404968
2271.941406	583.256348
2270.957031	590.389771
2269.972656	525.240112
2268.990234	626.330200
2268.005859	561.195984
2267.021484	563.511902
2266.037109	546.564880
2265.052734	572.956177
2264.068359	577.675964
2263.083984	567.954651
2262.097656	534.174622
2261.113281	601.449097
2260.126953	591.728638
2259.142578	598.846375
2258.156250	577.106445
2257.171875	603.457947
2256.185547	574.512878
2255.199219	555.191040
2254.212891	514.248291
2253.226563	576.632202
2252.240234	578.939636
2251.253906	566.835205
2250.265625	588.355103
2249.279297	561.846741
2248.291016	549.751038
2247.304688	549.660645
2246.316406	585.568298
2245.330078	590.270935
2244.341797	597.371155
2243.353516	563.691284
2242.365234	575.590027
2241.376953	534.731079
2240.388672	577.798218
2239.400391	584.894531
2238.410156	587.195007
2237.421875	551.153625
2236.431641	587.001831
2235.443359	589.300842
2234.453125	582.018494
2233.464844	526.843628
2232.474609	584.221375
2231.484375	588.913147
2230.494141	545.732117
2229.503906	595.898865
2228.513672	562.302002
2227.523438	550.247620
2226.531250	590.820862
2225.541016	542.891724
2224.548828	559.540833
2223.558594	557.057922
2222.566406	595.212891
2221.576172	564.044678
2220.583984	530.497070
2219.591797	585.362183
2218.599609	573.321594
2217.607422	556.508118
2216.615234	554.028503
2215.621094	587.364563
2214.628906	556.233398
2213.636719	575.236877
2212.642578	584.688110
2211.650391	524.939636
2210.656250	601.195496
2209.662109	541.463928
2208.669922	593.842834
2207.675781	538.901184
2206.681641	565.037842
2205.687500	560.177368
2204.693359	536.251709
2203.697266	567.141785
2202.703125	569.430908
2201.708984	569.337158
2200.712891	569.243408
2199.718750	607.251770
2198.722656	602.389832
2197.726563	559.439880
2196.732422	573.628967
2195.736328	556.875854
2194.740234	552.025330
2193.744141	570.966614
2192.746094	587.523010
2191.750000	527.970154
2190.753906	606.352356
2189.757813	572.968018
2188.759766	575.250732
2187.763672	632.196228
2186.765625	527.535522
2185.767578	536.952209
2184.769531	567.745300
2183.771484	581.902405
2182.773438	603.179077
2181.775391	574.587708
2180.777344	553.127625
2179.779297	591.013245
2178.781250	602.781677
2177.781250	569.463623
2176.783203	576.486938
2175.783203	552.672119
2174.785156	566.810608
2173.785156	583.315613
2172.785156	568.994629
2171.785156	580.752991
2170.785156	597.247498
2169.785156	604.257996
2168.785156	570.988892
2167.785156	573.263672
2166.783203	540.010620
2165.783203	549.393921
2164.781250	610.863281
2163.781250	565.783936
2162.779297	532.553955
2161.777344	549.031799
2160.777344	579.700928
2159.775391	617.457153
2158.773438	614.990051
2157.769531	565.224609
2156.767578	621.880981
2155.765625	562.674072
2154.763672	598.038086
2153.759766	583.759094
2152.757813	604.929932
2151.753906	557.577820
2150.750000	581.108154
2149.748047	590.459717
2148.744141	585.639465
2147.740234	594.987122
2146.736328	495.740845
2145.732422	604.232056
2144.728516	601.772461
2143.722656	556.842712
2142.718750	561.469055
2141.712891	610.909729
2140.708984	582.508911
2139.703125	572.981079
2138.699219	575.244080
2137.693359	568.077698
2136.687500	615.119629
2135.681641	615.018127
2134.675781	563.084656
2133.669922	603.037170
2132.664063	553.477966
2131.656250	602.838196
2130.650391	600.384338
2129.644531	529.663452
2128.636719	571.942139
2127.628906	593.027344
2126.623047	616.458435
2125.615234	616.356750
2124.607422	585.677490
2123.599609	557.360107
2122.591797	554.916748
2121.583984	552.474243
2120.574219	557.084167
2119.566406	594.595093
2118.558594	570.999084
2117.548828	561.507202
2116.541016	575.508667
2115.531250	643.523865
2114.521484	582.363403
2113.511719	589.310852
2112.503906	582.171143
2111.494141	612.587036
2110.482422	579.632263
2109.472656	649.925659
2108.462891	555.981812
2107.453125	595.763977
2106.441406	546.417664
2105.431641	607.291016
2104.419922	572.025269
2103.408203	562.554932
2102.398438	555.431274
2101.386719	602.203613
2100.375000	625.532349
2099.363281	594.977478
2098.351563	580.826965
2097.339844	531.556213
2096.326172	592.341492
2095.314453	543.085083
2094.300781	561.719421
2093.289063	606.088745
2092.275391	587.270813
2091.263672	608.227905
2090.250000	556.670471
2089.236328	615.042664
2088.222656	570.515686
2087.208984	549.381287
2086.195313	584.351624
2085.181641	535.177673
2084.166016	560.792236
2083.152344	542.009644
2082.136719	572.286255
2081.123047	604.888428
2080.107422	616.463928
2079.091797	576.672058
2078.078125	571.908142
2077.062500	578.815430
2076.046875	606.722412
2075.031250	548.293091
2074.013672	585.526917
2072.998047	578.432983
2071.982422	571.341370
2070.964844	615.547729
2069.949219	552.502625
2068.931641	547.749634
2067.916016	533.676331
2066.898438	638.441650
2065.880859	556.796875
2064.863281	586.985840
2063.845703	558.941711
2062.828125	598.434509
2061.810547	619.288940
2060.791016	609.875488
2059.773438	521.334045
2058.753906	623.635864
2057.736328	574.673828
2056.716797	548.990295
2055.699219	607.045654
2054.679688	592.992554
2053.660156	562.668457
2052.640625	574.198914
2051.621094	585.725525
2050.601563	567.037231
2049.580078	613.414246
2048.560547	566.849731
2047.541016	529.591675
2046.519531	575.951782
2045.500000	601.398560
2044.478516	561.831604
2043.457031	589.593445
2042.435547	591.816833
2041.414063	568.514221
2040.392578	635.702576
2039.371094	547.448914
2038.349609	586.786682
2037.328125	540.310974
2036.306641	577.318359
2035.283203	563.313904
2034.261719	565.538452
2033.238281	551.540527
2032.214844	556.083313
2031.191406	542.091492
2030.169922	560.531799
2029.146484	572.018372
2028.121094	606.655884
2027.097656	581.089417
2026.074219	604.140442
2025.050781	587.840149
2024.025391	564.603394
2023.001953	562.196350
2021.976563	525.092407
2020.953125	536.569519
2019.927734	515.668945
2018.902344	543.328003
2017.876953	577.912842
2016.851563	593.996033
2015.826172	559.234436
2014.800781	591.488892
2013.775391	568.289795
2012.748047	630.558655
2011.722656	602.742004
2010.695313	568.007568
2009.669922	577.147888
2008.642578	588.593384
2007.615234	528.492432
2006.587891	539.942139
2005.560547	574.458679
2004.533203	578.976929
2003.505859	537.367676
2002.478516	601.844360
2001.451172	562.550598
2000.421875	590.119263
1999.394531	576.192932
1998.365234	513.878967
1997.335938	559.874023
1996.308594	564.388550
1995.279297	603.450195
1994.250000	580.321655
1993.220703	545.688293
1992.191406	554.806274
1991.162109	591.541870
1990.130859	591.443909
1989.101563	570.637329
1988.072266	508.427216
1987.041016	598.050598
1986.009766	577.253174
1984.980469	641.541626
1983.949219	613.846741
1982.917969	560.875610
1981.886719	556.186096
1980.855469	574.477173
1979.824219	608.844910
1978.792969	583.475403
1977.759766	585.675476
1976.728516	569.503723
1975.695313	534.969238
1974.664063	583.088684
1973.630859	564.630127
1972.597656	555.357056
1971.564453	580.504333
1970.531250	580.408081
1969.498047	550.493469
1968.464844	593.975769
1967.431641	534.260254
1966.398438	561.682678
1965.363281	570.758362
1964.330078	554.620972
1963.294922	623.272339
1962.261719	593.385193
1961.226563	561.217224
1960.191406	535.930847
1959.156250	538.131897
1958.121094	583.833557
1957.085938	560.845093
1956.050781	560.752075
1955.015625	592.696777
1953.980469	588.022400
1952.943359	551.322571
1951.908203	583.252869
1950.871094	594.590576
1949.833984	553.334778
1948.796875	553.243042
1947.761719	555.437012
1946.724609	548.488770
1945.687500	562.107727
1944.648438	580.291382
1943.611328	584.763550
1942.574219	566.395752
1941.537109	568.585266
1940.498047	584.472595
1939.458984	545.569397
1938.421875	550.043579
1937.382813	602.437378
1936.343750	565.832092
1935.304688	597.675049
1934.265625	604.418335
1933.226563	602.037598
1932.187500	563.176575
1931.148438	576.761230
1930.107422	565.268982
1929.068359	613.032715
1928.027344	571.916992
1926.988281	505.755005
1925.947266	569.449402
1924.906250	539.748413
1923.865234	610.247131
1922.824219	621.529114
1921.783203	566.795105
1920.742188	564.425110
1919.701172	568.882446
1918.658203	566.512878
1917.617188	586.891785
1916.574219	577.696777
1915.533203	568.504761
1914.490234	600.241333
1913.447266	584.228821
1912.404297	593.223389
1911.361328	572.672302
1910.318359	595.298523
1909.275391	556.579834
1908.232422	572.387024
1907.189453	556.394958
1906.144531	569.926270
1905.101563	592.534119
1904.056641	553.847900
1903.013672	540.138977
1901.968750	580.893311
1900.923828	533.153320
1899.878906	605.652344
1898.833984	601.015747
1897.789063	562.366577
1896.744141	532.799133
1895.697266	525.910095
1894.652344	559.819885
1893.605469	557.460754
1892.560547	532.445190
1891.513672	564.071533
1890.468750	552.652954
1889.421875	579.736267
1888.375000	561.526184
1887.328125	570.488281
1886.281250	579.447327
1885.232422	572.561768
1884.185547	617.720886
1883.138672	542.961060
1882.089844	565.490417
1881.042969	585.750732
1879.994141	617.310303
1878.945313	581.034363
1877.898438	526.686768
1876.849609	555.980286
1875.800781	542.329651
1874.751953	544.498779
1873.703125	580.551575
1872.652344	564.645020
1871.603516	562.292908
1870.552734	548.652466
1869.503906	577.908142
1868.453125	611.668213
1867.404297	579.972656
1866.353516	543.774963
1865.302734	541.428589
1864.251953	606.750305
1863.201172	534.482910
1862.150391	613.312988
1861.099609	532.050720
1860.046875	606.346802
1858.996094	594.977417
1857.943359	516.012024
1856.892578	542.961609
1855.839844	533.860962
1854.787109	556.294189
1853.734375	578.719971
1852.681641	594.383850
1851.628906	522.250427
1850.576172	533.417053
1849.523438	546.830322
1848.470703	593.988403
1847.416016	524.152527
1846.363281	546.557434
1845.308594	568.954773
1844.253906	559.866272
1843.201172	530.548035
1842.146484	595.643372
1841.091797	548.350159
1840.037109	537.024109
1838.982422	561.647156
1837.927734	503.152130
1836.871094	534.510132
1835.816406	586.066956
1834.759766	550.047913
1833.705078	531.998596
1832.648438	540.887390
1831.591797	520.601624
1830.537109	558.656128
1829.480469	522.671509
1828.423828	529.313049
1827.365234	535.952393
1826.308594	571.736816
1825.251953	580.608582
1824.195313	587.235962
1823.136719	614.030029
1822.078125	562.393677
1821.021484	589.182922
1819.962891	557.726685
1818.904297	532.999390
1817.845703	550.823547
1816.787109	582.074280
1815.728516	559.593628
1814.669922	521.454407
1813.611328	561.644836
1812.550781	592.872864
1811.492188	588.300354
1810.431641	512.161011
1809.373047	554.562317
1808.312500	534.348022
1807.251953	523.082031
1806.191406	560.990295
1805.130859	534.081055
1804.070313	540.694885
1803.009766	524.967468
1801.949219	585.185364
1800.886719	549.357300
1799.826172	616.249390
1798.763672	584.892883
1797.703125	582.563354
1796.640625	575.771240
1795.578125	542.205811
1794.515625	580.041260
1793.453125	539.794556
1792.390625	528.553650
1791.328125	552.993530
1790.263672	523.918579
1789.201172	563.954529
1788.138672	503.685669
1787.074219	510.286682
1786.009766	543.620972
1784.947266	521.254517
1783.882813	572.393494
1782.818359	547.802795
1781.753906	569.976135
1780.689453	509.776459
1779.625000	565.334656
1778.558594	549.662903
1777.494141	527.321411
1776.429688	580.624207
1775.363281	564.957642
1774.296875	533.729248
1773.232422	515.852234
1772.166016	560.228821
1771.099609	529.016724
1770.033203	564.486694
1768.966797	539.950378
1767.900391	550.968567
1766.832031	601.966003
1765.765625	572.993835
1764.699219	575.118774
1763.630859	577.242981
1762.562500	554.948730
1761.496094	594.805786
1760.427734	554.763611
1759.359375	543.577637
1758.291016	512.430542
1757.222656	570.011536
1756.154297	545.523132
1755.083984	545.432129
1754.015625	576.376770
1752.945313	531.951294
1751.876953	542.942993
1750.806641	533.989502
1749.736328	513.962219
1748.667969	511.661438
1747.597656	535.936768
1746.527344	557.989807
1745.457031	524.688538
1744.384766	579.938599
1743.314453	579.841797
1742.244141	513.362000
1741.171875	559.736633
1740.101563	502.130432
1739.029297	566.184753
1737.957031	519.653137
1736.884766	565.995667
1735.812500	532.742920
1734.740234	548.125244
1733.667969	556.872986
1732.595703	581.083862
1731.523438	554.477905
1730.449219	549.967896
1729.376953	560.917725
1728.302734	543.160339
1727.230469	536.446838
1726.156250	505.455963
1725.082031	534.060791
1724.007813	556.036499
1722.933594	544.913025
1721.859375	562.468018
1720.785156	522.677063
1719.710938	529.204834
1718.634766	524.707092
1717.560547	546.662292
1716.484375	495.880920
1715.408203	555.293823
1714.333984	526.559692
1713.257813	519.863281
1712.181641	495.549561
1711.105469	506.477142
1710.029297	548.224915
1708.951172	572.348022
1707.875000	512.826172
1706.798828	543.548889
1705.720703	561.059937
1704.644531	505.969513
1703.566406	576.268921
1702.488281	538.787354
1701.410156	505.715820
1700.332031	560.591248
1699.253906	553.903442
1698.175781	549.415527
1697.097656	522.956116
1696.017578	496.505554
1694.939453	492.029449
1693.859375	511.712921
1692.781250	518.214844
1691.701172	564.232788
1690.621094	550.967896
1689.541016	555.265259
1688.462891	506.896515
1687.380859	541.915588
1686.300781	517.695129
1685.220703	570.246704
1684.140625	524.100647
1683.058594	515.242920
1681.978516	512.964539
1680.896484	528.221313
1679.814453	514.984375
1678.734375	543.381958
1677.652344	536.718994
1676.570313	516.916321
1675.488281	508.070007
1674.404297	514.553772
1673.322266	536.359924
1672.240234	520.948181
1671.156250	518.672546
1670.074219	472.635132
1668.990234	533.813293
1667.906250	527.161804
1666.822266	542.382813
1665.738281	537.918701
1664.654297	537.828674
1663.570313	522.437134
1662.486328	467.710632
1661.402344	544.114258
1660.316406	513.435547
1659.232422	543.932129
1658.146484	546.025208
1657.062500	517.545227
1655.976563	545.842407
1654.890625	523.921021
1653.804688	534.746521
1652.718750	549.932861
1651.632813	552.022705
1650.546875	534.477966
1649.458984	538.750793
1648.373047	516.852478
1647.285156	540.750854
1646.199219	531.940002
1645.111328	542.749512
1644.023438	564.452148
1642.937500	544.746704
1641.849609	498.904419
1640.759766	551.099060
1639.671875	548.828857
1638.583984	553.091980
1637.496094	518.164734
1636.406250	546.376343
1635.318359	470.109619
1634.228516	550.545410
1633.138672	524.344727
1632.050781	543.834961
1630.960938	521.994080
1629.871094	561.049622
1628.781250	513.122192
1627.689453	526.079529
1626.599609	491.215088
1625.509766	523.730103
1624.417969	510.605591
1623.328125	495.313049
1622.236328	536.499207
1621.144531	490.803650
1620.052734	540.662048
1618.960938	510.177887
1617.869141	570.869324
1616.777344	501.325897
1615.685547	503.411743
1614.593750	514.174927
1613.500000	544.456848
1612.408203	514.002563
1611.314453	511.747986
1610.222656	505.158020
1609.128906	509.408722
1608.035156	502.821320
1606.941406	465.898529
1605.847656	476.653442
1604.753906	548.059509
1603.658203	504.650024
1602.564453	530.551636
1601.470703	517.471741
1600.375000	543.362427
1599.281250	493.489471
1598.185547	525.867676
1597.089844	558.234985
1595.994141	510.547913
1594.898438	551.558838
1593.802734	508.214050
1592.707031	544.887024
1591.609375	553.443176
1590.513672	501.473755
1589.417969	507.873108
1588.320313	473.215118
1587.222656	533.627991
1586.126953	542.178711
1585.029297	550.726624
1583.931641	488.013062
1582.833984	511.680023
1581.736328	522.387268
1580.636719	528.774414
1579.539063	520.054077
1578.441406	507.021576
1577.341797	541.451294
1576.244141	532.733154
1575.144531	530.487305
1574.044922	500.213013
1572.945313	495.817596
1571.845703	519.443420
1570.746094	482.721100
1569.646484	480.485443
1568.546875	473.941925
1567.445313	529.864258
1566.345703	536.236023
1565.244141	490.928833
1564.144531	529.597412
1563.042969	510.136261
1561.941406	550.940735
1560.839844	497.054443
1559.738281	484.062622
1558.636719	496.887512
1557.535156	498.954742
1556.431641	526.824890
1555.330078	518.136658
1554.228516	522.348816
1553.125000	515.813416
1552.021484	524.322205
1550.917969	487.709625
1549.816406	498.368408
1548.712891	504.728027
1547.609375	502.495819
1546.503906	474.499634
1545.400391	500.180267
1544.296875	506.535248
1543.191406	508.596130
1542.087891	491.345734
1540.982422	478.391663
1539.876953	512.629578
1538.773438	465.363708
1537.667969	497.448090
1536.562500	505.939728
1535.457031	492.993988
1534.349609	482.195679
1533.244141	509.970154
1532.138672	531.308167
1531.031250	503.372711
1529.925781	484.013214
1528.818359	486.073151
1527.710938	511.682617
1526.603516	485.909729
1525.496094	464.425934
1524.388672	464.347870
1523.281250	519.896606
1522.173828	526.226563
1521.064453	438.448395
1519.957031	508.942322
1518.847656	487.476196
1517.740234	510.908844
1516.630859	497.998932
1515.521484	489.367279
1514.412109	514.924377
1513.302734	431.523773
1512.193359	484.848633
1511.083984	501.851379
1509.974609	484.685516
1508.863281	461.121002
1507.753906	512.270447
1506.642578	524.988892
1505.531250	465.155792
1504.421875	505.611816
1503.310547	501.260712
1502.199219	492.645721
1501.087891	486.165894
1499.976563	492.479950
1498.863281	511.581390
1497.751953	496.576691
1496.638672	522.063599
1495.527344	498.540100
1494.414063	500.586334
1493.300781	521.800049
1492.189453	474.864594
1491.076172	481.171906
1489.962891	455.546265
1488.849609	478.881592
1487.734375	472.416962
1486.621094	489.358612
1485.507813	495.658112
1484.392578	461.543762
1483.277344	444.453491
1482.164063	489.029175
1481.048828	461.310699
1479.933594	507.993988
1478.818359	512.158752
1477.703125	509.947693
1476.587891	492.866425
1475.472656	514.024109
1474.355469	458.721100
1473.240234	467.137268
1472.123047	450.074646
1471.005859	477.593109
1469.890625	477.512665
1468.773438	485.919922
1467.656250	507.053711
1466.539063	492.119843
1465.421875	481.432709
1464.302734	451.664734
1463.185547	502.471863
1462.068359	536.303650
1460.949219	510.780243
1459.830078	487.384491
1458.712891	483.064972
1457.593750	487.220276
1456.474609	499.846100
1455.355469	520.938232
1454.236328	467.918488
1453.117188	482.658081
1451.996094	493.159576
1450.876953	505.773712
1449.755859	482.414093
1448.636719	490.794769
1447.515625	484.366608
1446.394531	494.858887
1445.273438	490.546600
1444.152344	488.349854
1443.031250	471.357819
1441.910156	502.978699
1440.789063	496.554901
1439.667969	477.457397
1438.544922	494.275177
1437.423828	483.632202
1436.300781	470.881195
1435.177734	513.026184
1434.054688	510.828796
1432.931641	457.979980
1431.808594	497.995605
1430.685547	491.582245
1429.562500	489.389893
1428.439453	523.052673
1427.314453	455.485168
1426.191406	491.250671
1425.066406	474.303650
1423.941406	470.008331
1422.816406	514.182434
1421.691406	499.347046
1420.566406	459.237518
1419.441406	549.728333
1418.316406	454.870819
1417.191406	473.743805
1416.064453	471.558685
1414.939453	488.317657
1413.812500	511.384338
1412.687500	481.840546
1411.560547	475.447968
1410.433594	517.435669
1409.306641	443.741882
1408.179688	502.542236
1407.052734	477.229401
1405.923828	472.944916
1404.796875	495.982910
1403.667969	434.962433
1402.541016	493.714569
1401.412109	504.134003
1400.283203	470.445648
1399.156250	468.266357
1398.027344	501.779205
1396.898438	507.991913
1395.767578	478.523132
1394.638672	486.836060
1393.509766	472.067322
1392.378906	480.378479
1391.250000	463.518402
1390.119141	476.022217
1388.988281	463.361877
1387.859375	469.572510
1386.728516	507.220337
1385.597656	479.891907
1384.464844	500.763275
1383.333984	456.686005
1382.203125	475.459656
1381.070313	492.132813
1379.939453	496.237305
1378.806641	466.844849
1377.673828	458.393463
1376.542969	502.264130
1375.410156	470.793060
1374.277344	466.529388
1373.144531	445.533478
1372.009766	472.645782
1370.876953	470.474915
1369.744141	457.851532
1368.609375	482.857666
1367.476563	516.215088
1366.341797	516.127808
1365.207031	438.738983
1364.072266	482.531281
1362.937500	436.502136
1361.802734	480.279999
1360.667969	492.725708
1359.533203	471.767731
1358.396484	488.384888
1357.261719	498.736145
1356.125000	461.096436
1354.988281	483.965088
1353.853516	444.254883
1352.716797	454.606537
1351.580078	483.719635
1350.443359	464.876007
1349.304688	466.881683
1348.167969	466.802734
1347.031250	495.894012
1345.892578	543.724548
1344.755859	447.819946
1343.617188	506.055084
1342.478516	445.586273
1341.339844	476.738312
1340.201172	470.413239
1339.062500	466.171387
1337.923828	474.415619
1336.785156	455.611572
1335.646484	505.456085
1334.505859	484.573425
1333.365234	476.173950
1332.226563	451.145264
1331.085938	446.911591
1329.945313	478.010559
1328.804688	469.617859
1327.664063	477.848785
1326.523438	494.385925
1325.382813	496.379150
1324.240234	448.534515
1323.099609	475.449158
1321.957031	458.761902
1320.816406	466.986206
1319.673828	439.930298
1318.531250	473.052490
1317.388672	456.376862
1316.246094	408.595551
1315.103516	468.664764
1313.960938	466.512024
1312.816406	478.871246
1311.673828	443.554504
1310.529297	474.564392
1309.386719	466.196106
1308.242188	482.690216
1307.097656	437.040283
1305.953125	463.888336
1304.808594	459.668610
1303.664063	484.433502
1302.519531	469.862274
1301.375000	428.392151
1300.228516	430.388763
1299.083984	457.210571
1297.937500	450.927704
1296.791016	459.123810
1295.644531	500.401489
1294.498047	450.698517
1293.351563	479.561188
1292.205078	491.880280
1291.058594	464.934052
1289.912109	466.921295
1288.763672	497.827271
1287.617188	460.567078
1286.468750	485.268707
1285.320313	456.281708
1284.173828	470.654297
1283.025391	447.871368
1281.876953	468.431183
1280.726563	435.340179
1279.578125	455.895111
1278.429688	470.255493
1277.279297	455.740570
1276.130859	480.405182
1274.980469	461.770447
1273.832031	476.120026
1272.681641	436.884552
1271.531250	467.716858
1270.380859	449.096863
1269.230469	453.140167
1268.078125	409.816345
1266.927734	465.340637
1265.777344	481.731171
1264.625000	465.182800
1263.474609	458.929962
1262.322266	483.543701
1261.169922	427.915009
1260.017578	452.525635
1258.865234	425.713257
1257.712891	466.765778
1256.560547	468.742462
1255.406250	427.552155
1254.253906	443.921112
1253.099609	439.736115
1251.947266	449.933960
1250.792969	443.695190
1249.638672	488.803375
1248.484375	439.437714
1247.330078	435.256927
1246.175781	465.974304
1245.021484	443.318787
1243.867188	465.816132
1242.710938	463.685364
1241.556641	430.784943
1240.400391	465.578949
1239.244141	442.942657
1238.087891	446.968079
1236.933594	436.642365
1235.775391	452.965179
1234.619141	473.380951
1233.462891	463.055969
1232.306641	481.414490
1231.148438	450.609375
1229.992188	448.484955
1228.833984	442.266205
1227.675781	434.002380
1226.519531	411.413513
1225.361328	482.970612
1224.203125	452.196533
1223.042969	439.844971
1221.884766	458.179230
1220.726563	466.281799
1219.566406	443.710358
1218.408203	449.768158
1217.248047	439.471497
1216.089844	441.440521
1214.929688	447.495605
1213.769531	437.204498
1212.609375	449.386200
1211.449219	432.971313
1210.287109	439.023621
1209.126953	432.824158
1207.964844	438.874420
1206.804688	424.513336
1205.642578	461.171661
1204.482422	440.690918
1203.320313	428.376678
1202.158203	442.580658
1200.996094	481.250153
1199.832031	393.497833
1198.669922	472.932526
1197.507813	456.546875
1196.343750	468.696106
1195.181641	464.541473
1194.017578	456.314026
1192.853516	454.199677
1191.691406	431.721771
1190.527344	456.081299
1189.363281	458.039459
1188.197266	437.607727
1187.033203	409.042755
1185.869141	467.979248
1184.703125	467.899658
1183.539063	451.548065
1182.373047	455.538574
1181.207031	457.494385
1180.041016	463.515442
1178.875000	457.338745
1177.708984	438.970490
1176.542969	453.119293
1175.376953	432.726410
1174.208984	446.871399
1173.042969	444.764496
1171.875000	448.749878
1170.708984	418.220581
1169.541016	468.895691
1168.373047	430.255280
1167.205078	454.531982
1166.037109	444.310547
1164.869141	478.718903
1163.699219	464.440552
1162.531250	454.222595
1161.361328	480.501923
1160.193359	413.526184
1159.023438	435.749969
1157.853516	447.834167
1156.683594	393.054474
1155.513672	429.450317
1154.343750	441.529358
1153.173828	447.529236
1152.003906	441.378998
1150.832031	423.084869
1149.662109	439.204712
1148.490234	441.153564
1147.318359	432.985229
1146.146484	453.140991
1144.974609	453.063812
1143.802734	450.964386
1142.630859	436.734161
1141.458984	456.875488
1140.287109	428.500458
1139.113281	404.176849
1137.941406	424.313385
1136.767578	426.261292
1135.593750	446.387177
1134.419922	472.564697
1133.246094	464.407532
1132.072266	444.140198
1130.898438	427.916718
1129.724609	431.880066
1128.550781	496.375641
1127.375000	455.942169
1126.201172	401.402771
1125.025391	463.853790
1123.849609	465.791138
1122.673828	433.454651
1121.498047	445.475098
1120.322266	413.153076
1119.146484	417.112701
1117.970703	443.232605
1116.792969	477.401001
1115.617188	447.109497
1114.439453	455.087921
1113.261719	440.917084
1112.085938	467.010590
1110.908203	448.817261
1109.730469	474.900482
1108.552734	446.652222
1107.373047	442.552856
1106.195313	482.702576
1105.017578	436.369141
1103.837891	448.358154
1102.658203	458.332825
1101.480469	448.205200
1100.300781	446.119202
1099.121094	450.061493
1097.941406	451.993561
1096.761719	449.907928
1095.580078	459.872040
1094.400391	427.668274
1093.220703	459.715118
1092.039063	449.600922
1090.857422	437.483398
1089.677734	437.408722
1088.496094	443.352417
1087.314453	449.294098
1086.132813	449.217407
1084.951172	467.186554
1083.767578	459.087830
1082.585938	461.013855
1081.402344	468.951416
1080.220703	456.849030
1079.037109	472.798096
1077.853516	480.729523
1076.669922	476.642059
1075.486328	472.555939
1074.302734	430.432983
1073.119141	480.401276
1071.935547	448.297943
1070.750000	496.245117
1069.566406	490.158417
1068.380859	486.074097
1067.197266	463.991486
1066.011719	513.902771
1064.826172	419.848846
1063.640625	451.760132
1062.455078	463.674530
1061.267578	479.581390
1060.082031	463.516144
1058.894531	471.427246
1057.708984	419.418671
1056.521484	455.291046
1055.333984	453.216705
1054.148438	477.093750
1052.960938	488.987427
1051.773438	486.908325
1050.583984	484.829926
1049.396484	460.808960
1048.208984	480.675232
1047.019531	456.663116
1045.832031	456.585052
1044.642578	474.448334
1043.453125	444.470154
1042.263672	434.430176
1041.074219	454.280487
1039.884766	456.194946
1038.695313	456.116943
1037.503906	464.004700
1036.314453	453.969879
1035.125000	479.772095
1033.933594	481.680450
1032.742188	487.568329
1031.550781	455.649200
1030.359375	443.634888
1029.167969	463.449554
1027.976563	453.426727
1026.785156	451.360809
1025.591797	423.451111
1024.400391	433.317169
1023.207031	461.065979
1022.015625	480.857239
1020.822266	494.681702
1019.628906	462.815735
1018.435547	464.722534
1017.242188	470.599976
1016.048828	472.504761
1014.853516	468.453979
1013.660156	484.250885
1012.464844	484.167999
1011.271484	470.197479
1010.076172	497.887634
1008.880859	440.287384
1007.685547	465.990204
1006.490234	529.353577
1005.294922	489.617798
1004.099609	481.606293
1002.904297	515.210693
1001.707031	475.497711
1000.509766	463.530884
999.314453	477.315460
998.117188	453.471069
996.919922	487.051453
995.722656	534.477112
994.525391	518.551941
993.328125	459.097137
992.130859	472.868225
990.931641	482.678192
989.734375	466.772705
988.535156	456.805206
987.335938	488.361725
986.136719	496.185425
984.939453	468.429474
983.738281	525.657776
982.539063	497.906281
981.339844	535.355103
980.140625	515.511963
978.939453	541.096069
977.740234	477.820496
976.539063	489.583374
975.337891	475.682953
974.136719	499.282837
972.935547	556.417542
971.734375	469.520142
970.533203	520.722961
969.332031	514.717468
968.128906	471.250519
966.927734	510.598175
965.724609	498.684143
964.523438	463.125244
963.320313	506.394806
962.117188	516.158325
960.914063	520.009338
959.710938	484.471069
958.505859	529.676270
957.302734	539.429077
956.097656	525.557922
954.894531	472.330597
953.689453	564.731812
952.484375	505.613861
951.281250	523.230469
950.076172	513.307251
948.869141	556.479065
947.664063	507.233093
946.458984	544.494080
945.253906	522.781860
944.046875	528.587219
942.839844	506.885132
941.634766	553.942200
940.427734	544.027161
939.220703	516.442566
938.013672	524.207214
936.806641	547.673157
935.597656	578.981506
934.390625	521.975098
933.183594	539.543335
931.974609	517.872681
930.765625	586.429382
929.556641	558.875183
928.349609	629.361938
927.140625	601.809814
925.929688	533.108032
924.720703	558.491577
923.511719	523.128601
922.300781	552.422974
921.091797	601.293396
919.880859	554.191589
918.669922	552.138489
917.460938	534.425232
916.250000	532.376221
915.039063	569.466431
913.826172	588.934570
912.615234	586.877197
911.404297	561.349426
910.191406	569.075317
908.980469	602.216797
907.767578	576.699463
906.554688	560.963806
905.341797	570.638672
904.128906	592.033569
902.916016	611.467590
901.703125	546.905762
900.488281	611.257446
899.275391	583.816528
898.060547	572.002869
896.847656	558.241333
895.632813	593.273376
894.417969	579.512878
893.203125	554.051758
891.988281	557.857666
890.773438	604.566956
889.556641	590.813843
888.341797	561.469116
887.125000	588.661560
885.910156	594.406982
884.693359	604.047485
883.476563	592.254395
882.259766	617.474915
881.042969	553.100037
879.826172	603.632141
878.609375	601.581482
877.390625	620.943359
876.173828	570.235474
874.955078	554.570496
873.738281	607.004333
872.519531	587.447998
871.300781	589.291870
870.082031	630.025452
868.863281	633.805481
867.642578	606.482483
866.423828	612.208679
865.205078	579.069214
863.984375	623.655151
862.763672	611.892761
861.544922	578.770386
860.324219	617.507751
859.103516	605.752441
857.882813	603.706970
856.660156	590.017151
855.439453	644.249939
854.218750	582.053406
852.996094	649.847778
851.773438	626.461792
850.552734	663.198303
849.330078	622.368408
848.107422	645.523376
846.884766	643.474121
845.662109	699.560730
844.437500	670.377625
843.214844	608.272644
841.990234	664.336304
840.767578	668.094910
839.542969	667.979858
838.318359	663.993164
837.093750	646.459229
835.869141	685.051392
834.644531	692.672729
833.419922	713.833008
832.195313	707.907532
830.968750	686.513367
829.742188	750.200806
828.517578	726.873535
827.291016	680.360107
826.064453	691.837952
824.837891	709.108276
823.611328	726.372681
822.384766	730.110535
821.156250	737.709473
819.929688	735.651489
818.701172	747.107788
817.474609	704.515076
816.246094	748.780151
815.017578	777.593750
813.789063	769.743042
812.560547	783.112244
811.332031	746.335510
810.101563	763.560486
808.873047	780.779480
807.642578	774.862366
806.414063	755.456909
805.183594	818.912781
803.953125	805.285950
802.722656	722.320984
801.492188	785.749695
800.261719	750.954712
799.031250	837.458923
797.798828	814.216125
796.568359	806.377625
795.335938	837.025635
794.103516	786.860779
792.873047	823.272217
791.640625	844.285400
790.408203	851.831238
789.173828	824.768738
787.941406	828.470886
786.708984	834.093567
785.474609	876.223572
784.242188	860.702698
783.007813	887.446472
781.773438	887.293335
780.539063	923.624329
779.304688	842.829773
778.070313	940.581543
776.835938	917.388550
775.599609	919.149109
774.365234	951.605957
773.128906	890.058350
771.894531	957.031128
770.658203	972.206482
769.421875	952.866272
768.185547	948.867920
766.949219	1008.117920
765.710938	1017.525024
764.474609	1019.265259
763.238281	1022.920410
762.000000	1036.150513
760.761719	1076.184937
759.525391	1047.280151
758.287109	1077.727417
757.048828	1056.488037
755.810547	1113.713501
754.570313	1144.133423
753.332031	1098.025269
752.093750	1166.689453
750.853516	1187.522827
749.613281	1116.575806
748.375000	1166.084839
747.134766	1171.617188
745.894531	1186.702393
744.654297	1194.139771
743.412109	1245.511353
742.171875	1264.395752
740.931641	1275.635010
739.689453	1283.051758
738.447266	1269.467163
737.207031	1358.953979
735.964844	1290.019775
734.722656	1419.539673
733.480469	1323.911621
732.238281	1430.492920
730.994141	1395.919678
729.751953	1412.838257
728.507813	1441.189087
727.265625	1419.973755
726.021484	1515.012085
724.777344	1501.412598
723.533203	1482.102783
722.289063	1544.701172
721.044922	1580.616821
719.800781	1629.848145
718.554688	1564.840454
717.310547	1684.482056
716.064453	1687.996826
714.818359	1718.148193
713.572266	1729.265259
712.326172	1768.909180
711.080078	1894.116943
709.833984	1882.380737
708.587891	1914.373169
707.339844	1944.453735
706.093750	2056.241211
704.845703	2044.484985
703.599609	2146.717773
702.351563	2100.760010
701.103516	2246.626709
699.855469	2253.832764
698.607422	2392.028320
697.357422	2509.296875
696.109375	2394.995850
694.859375	2529.300293
693.611328	2640.792480
692.361328	2583.431396
691.111328	2685.393311
689.861328	2787.319580
688.611328	2714.796387
687.361328	2807.204590
686.111328	2844.621582
684.859375	2963.502686
683.609375	3008.457275
682.357422	2977.629639
681.105469	3011.202881
679.855469	3027.722900
678.603516	3078.314453
677.351563	3045.602783
676.097656	3143.486572
674.845703	3095.636963
673.593750	3236.990967
672.339844	3170.226074
671.087891	3218.848389
669.833984	3244.762939
668.580078	3172.359375
667.326172	3239.858154
666.072266	3222.287354
664.818359	3234.956055
663.562500	3183.385742
662.308594	3180.944824
661.054688	3085.963867
659.798828	3092.981934
658.542969	3132.092529
657.287109	3071.145996
656.031250	3064.951660
654.775391	3075.741943
653.519531	3075.208740
652.263672	2957.724609
651.005859	2977.957520
649.750000	2922.757324
648.492188	2982.580811
647.236328	2999.028564
645.978516	2904.274902
644.720703	2967.838867
643.462891	2827.906982
642.205078	2857.555420
640.945313	2761.008301
639.687500	2818.903564
638.427734	2825.945313
637.169922	2836.749268
635.910156	2817.436768
634.650391	2798.130615
633.390625	2808.933350
632.130859	2721.916504
630.871094	2755.297607
629.611328	2728.493652
628.349609	2853.986572
627.089844	2842.212646
625.828125	2783.456543
624.566406	2869.412842
623.304688	2716.732666
622.042969	2840.239990
620.781250	2706.398926
619.519531	2764.141357
618.257813	2836.883545
616.994141	2796.970459
615.732422	2738.302979
614.468750	2722.815430
613.205078	2767.371094
611.943359	2658.090820
610.679688	2757.032471
609.416016	2773.430420
608.150391	2637.957275
606.886719	2637.499268
605.623047	2713.884521
604.357422	2816.477783
603.091797	2759.781250
601.828125	2630.047363
600.562500	2687.651123
599.296875	2709.655518
598.031250	2754.119385
596.763672	2763.000732
595.498047	2710.114990
594.232422	2647.891113
592.964844	2688.592529
591.697266	2800.364258
590.431641	2803.618164
589.164063	2776.950928
587.896484	2780.207764
586.628906	2626.437744
585.359375	2818.490967
584.091797	2872.193359
582.822266	2875.430664
581.554688	2848.778076
580.285156	2909.917725
579.015625	2963.566650
577.746094	2923.842529
576.476563	2927.067871
575.207031	3031.078613
573.937500	2995.095703
572.667969	3110.253174
571.396484	3083.595947
570.126953	3105.441162
568.855469	3209.330078
567.583984	3287.080078
566.312500	3290.236572
565.041016	3338.124023
563.769531	3367.359375
562.498047	3357.457520
561.224609	3442.564941
559.953125	3434.515869
558.679688	3443.229492
557.406250	3450.077881
556.134766	3557.448242
554.861328	3566.135254
553.587891	3660.421387
552.312500	3685.832764
551.039063	3651.706299
549.765625	3788.706543
548.490234	3760.152832
547.216797	3787.387695
545.941406	3788.587402
544.666016	3739.603027
543.390625	3802.135010
542.115234	3729.010986
540.839844	3724.646484
539.562500	3640.416992
538.287109	3602.642334
537.009766	3618.725342
535.734375	3478.866211
534.457031	3613.752930
533.179688	3446.107178
531.902344	3326.760254
530.625000	3450.472168
529.347656	3403.501953
528.068359	3371.383301
526.791016	3422.711670
525.511719	3329.425293
524.234375	3397.423828
522.955078	3306.027344
521.675781	3492.587402
520.396484	3558.669189
519.117188	3611.762451
517.837891	3657.429688
516.556641	3775.290771
515.277344	3930.135254
513.996094	3984.977051
512.714844	4071.259521
511.435547	4196.366699
510.154297	4343.629395
508.873047	4459.397461
507.589844	4612.110352
506.308594	4674.170898
505.027344	4812.003906
503.744141	4947.940430
502.462891	5061.653320
501.179688	5003.492676
499.896484	5207.676270
498.613281	5275.107910
497.330078	5408.997559
496.046875	5278.807129
494.761719	5359.113281
493.478516	5269.583008
492.195313	5263.127930
490.910156	5251.139160
489.625000	5071.280273
488.339844	5003.995117
487.054688	4934.889648
485.769531	4705.396484
484.484375	4603.183594
483.197266	4521.281250
481.912109	4326.993652
480.625000	4357.561523
479.339844	4117.315430
478.052734	3974.772217
476.765625	3876.476074
475.478516	3886.846680
474.191406	3810.690918
472.904297	3649.894287
471.615234	3698.944336
470.328125	3527.183350
469.039063	3567.039551
467.750000	3564.577393
466.462891	3516.141357
465.173828	3408.885010
463.884766	3340.270996
462.593750	3427.912842
461.304688	3443.853516
460.015625	3448.764160
458.724609	3404.072510
457.433594	3469.600586
456.144531	3450.630371
454.853516	3516.127197
453.562500	3491.647705
452.271484	3503.885986
450.978516	3573.009033
449.687500	3642.107910
448.396484	3591.940186
447.103516	3706.865479
445.810547	3779.572021
444.519531	3799.080322
443.226563	4023.901611
441.933594	4059.856445
440.638672	4225.910645
439.345703	4404.732910
438.052734	4618.298828
436.757813	4857.433105
435.464844	4979.280273
434.169922	5207.281250
432.875000	5449.847656
431.580078	5619.115723
430.285156	5764.534180
428.990234	5959.303223
427.695313	6203.396973
426.398438	6496.789063
425.103516	6764.476563
423.806641	6666.388184
422.509766	6751.142578
421.212891	6810.278320
419.916016	6767.055664
418.619141	6723.848145
417.322266	6616.716797
416.025391	6575.376465
414.726563	6360.563965
413.429688	6131.219238
412.130859	5936.640137
410.832031	5676.420410
409.533203	5545.859863
408.234375	5134.359375
406.935547	4960.156738
405.636719	4753.183594
404.335938	4611.933105
403.037109	4408.739746
401.736328	4240.253906
400.435547	4053.600098
399.134766	4072.936279
397.833984	3924.639404
396.533203	3800.076416
395.232422	3757.519287
393.931641	3591.144531
392.628906	3503.119873
391.328125	3551.657959
390.025391	3496.432861
388.722656	3455.785156
387.419922	3480.652588
386.117188	3460.032471
384.814453	3330.289063
383.511719	3493.372314
382.207031	3576.397705
380.904297	3708.476563
379.599609	3784.164551
378.296875	3856.191406
376.992188	4142.590332
375.687500	4083.732910
374.382813	4330.032715
373.076172	4400.097168
371.771484	4402.957031
370.466797	4266.035645
369.160156	4209.022461
367.853516	4055.850342
366.548828	4026.109375
365.242188	3896.605469
363.935547	3845.137695
362.628906	3728.404297
361.320313	3698.741211
360.013672	3699.905518
358.705078	3764.505859
357.398438	3580.818359
356.089844	3623.674561
354.781250	3427.395264
353.472656	3531.843994
352.164063	3422.571533
350.855469	3373.086182
349.546875	3300.084717
348.236328	3223.488770
346.927734	3255.496338
345.617188	3162.651367
344.306641	3091.546387
342.996094	3053.022217
341.685547	3041.636475
340.375000	3008.558594
339.064453	3129.147217
337.753906	3128.598389
336.441406	3160.576660
335.130859	3306.369629
333.818359	3318.434570
332.505859	3619.475342
331.193359	3857.206787
329.880859	4248.321777
328.568359	4521.962402
327.253906	4923.652344
325.941406	5274.673340
324.626953	5879.966797
323.314453	6540.968750
322.000000	6837.413086
320.685547	7324.899902
319.371094	7529.151367
318.056641	7517.013672
316.742188	7445.402832
315.425781	7103.516113
314.111328	6747.335449
312.794922	6369.663086
311.478516	5999.327637
310.162109	5562.494141
308.845703	5161.822266
307.529297	5022.307129
306.212891	4634.469238
304.896484	4311.548828
303.578125	4127.276855
302.261719	4027.615234
300.943359	3773.315186
299.625000	3695.328857
298.306641	3620.965820
296.988281	3481.915771
295.669922	3459.736816
294.351563	3410.611084
293.033203	3485.470459
291.712891	3377.078613
290.392578	3236.396973
289.074219	3198.118652
287.753906	3079.062012
286.433594	3049.799805
285.113281	2885.942383
283.791016	2826.218994
282.470703	2782.663574
281.150391	2751.679688
279.828125	2613.098145
278.505859	2637.742920
277.185547	2576.322266
275.863281	2552.566162
274.541016	2625.598145
273.216797	2524.790039
271.894531	2576.302002
270.572266	2577.640137
269.248047	2788.519531
267.923828	2782.656982
266.601563	2776.796631
265.277344	2840.748535
263.953125	2981.634766
262.628906	2938.165039
261.302734	3073.617188
259.978516	3096.330078
258.654297	3251.379150
257.328125	3227.561523
256.001953	3305.656982
254.675781	3340.825195
253.349609	3358.108887
252.023438	3468.303467
250.697266	3428.388916
249.371094	3538.531982
248.042969	3341.457764
246.716797	3396.223145
245.388672	3259.943115
244.060547	3309.348633
242.732422	3212.394043
241.404297	3097.630127
240.076172	3029.291260
238.748047	2946.706543
237.417969	2609.123779
236.089844	2581.917969
234.759766	2494.106934
233.429688	2249.469971
232.101563	2247.291748
230.771484	2050.893799
229.439453	1945.422729
228.109375	1850.675903
226.779297	1693.631104
225.447266	1611.425903
224.117188	1475.841675
222.785156	1518.300537
221.453125	1350.746826
220.121094	1222.397217
218.789063	1126.115112
217.457031	1141.924927
216.125000	1150.615601
214.791016	1047.284668
213.458984	970.656372
212.125000	979.372498
210.791016	1002.302551
209.457031	922.169006
208.123047	884.699768
206.789063	909.410522
205.455078	822.232056
204.119141	839.842712
202.785156	793.538086
201.449219	764.999084
200.113281	773.737305
198.777344	791.343994
197.441406	824.910400
196.105469	778.649048
194.769531	760.777893
193.433594	758.870667
192.095703	739.236511
190.757813	758.602905
189.421875	701.761108
188.083984	737.073486
186.746094	699.742004
185.408203	692.533752
184.070313	701.265930
182.730469	708.224426
181.392578	651.451477
180.052734	665.495972
178.712891	686.614014
177.375000	677.646240
176.035156	659.836609
174.695313	668.563599
173.353516	679.055786
172.013672	686.008179
170.673828	691.190308
169.332031	749.393677
167.990234	743.960022
166.650391	722.626831
165.308594	727.798767
163.966797	720.605469
162.625000	665.735962
161.281250	653.259399
159.939453	605.482178
158.595703	674.207947
157.253906	651.148682
155.910156	631.626160
154.566406	626.222534
153.222656	629.639282
151.878906	594.260376
150.535156	574.761536
149.189453	581.711060
147.845703	615.094788
146.500000	537.452026
145.154297	588.450012
143.810547	577.776917
142.464844	544.211914
141.117188	540.593933
139.771484	526.413757
138.425781	528.080933
137.078125	535.027405
135.732422	512.057434
134.384766	545.394287
133.037109	554.092957
131.689453	522.338135
130.341797	509.936951
128.994141	509.846771
127.646484	515.029968
126.296875	534.271057
124.949219	518.362122
123.599609	502.458771
122.250000	505.882965
120.900391	511.062164
119.550781	514.483582
118.201172	498.592102
116.851563	480.950958
115.500000	501.925659
114.150391	459.724670
112.798828	491.221863
111.447266	471.840363
110.095703	455.973175
108.744141	441.865021
107.392578	371.661926
106.041016	359.326447
104.689453	315.450317
103.335938	255.819962
