#Wave		#Intensity
3204.356445	2774.918457
3203.525391	2772.069336
3202.693359	2859.927002
3201.861328	2685.733154
3201.028320	2742.252441
3200.196289	2784.517578
3199.363281	2641.733643
3198.531250	2718.156250
3197.698242	2768.941895
3196.865234	2708.743652
3196.032227	2711.151611
3195.199219	2687.959229
3194.365234	2653.398438
3193.532227	2823.579590
3192.698242	2737.833496
3191.864258	2649.272217
3191.031250	2714.213623
3190.197266	2784.817139
3189.362305	2730.385254
3188.528320	2769.715332
3187.694336	2669.858887
3186.859375	2706.345947
3186.024414	2697.391357
3185.189453	2756.573242
3184.354492	2821.412842
3183.519531	2676.220459
3182.684570	2644.575928
3181.849609	2757.632324
3181.013672	2802.573242
3180.177734	2717.036621
3179.341797	2662.720215
3178.506836	2724.666016
3177.669922	2806.435059
3176.833984	2652.928955
3175.998047	2760.187988
3175.161133	2635.072754
3174.325195	2875.448730
3173.488281	2787.177490
3172.651367	2778.231689
3171.814453	2687.172852
3170.977539	2780.166504
3170.139648	2808.024902
3169.302734	2711.344727
3168.464844	2759.013184
3167.626953	2795.348877
3166.789063	2741.149902
3165.951172	2650.199219
3165.113281	2754.405273
3164.275391	2770.925781
3163.436523	2654.571045
3162.598633	2837.869385
3161.759766	2673.497314
3160.920898	2732.404541
3160.082031	2700.886719
3159.243164	2646.780762
3158.404297	2725.433838
3157.564453	2643.103027
3156.725586	2690.673828
3155.885742	2766.458496
3155.045898	2816.816406
3154.206055	2711.947754
3153.366211	2728.439453
3152.526367	2733.641357
3151.685547	2730.379639
3150.845703	2831.465820
3150.004883	2729.498779
3149.164063	2714.961914
3148.323242	2768.081543
3147.482422	2761.998047
3146.641602	2753.098633
3145.800781	2769.559082
3144.958984	2693.053223
3144.118164	2720.784180
3143.276367	2804.827881
3142.434570	2686.118408
3141.592773	2730.727783
3140.750977	2783.767090
3139.908203	2721.403809
3139.066406	2746.289063
3138.223633	2830.246826
3137.380859	2734.151123
3136.538086	2747.771973
3135.695313	2654.532471
3134.852539	2738.450684
3134.009766	2780.175049
3133.166016	2805.022217
3132.323242	2745.555420
3131.479492	2854.692139
3130.635742	2736.241455
3129.791992	2732.990967
3128.948242	2667.957275
3128.104492	2628.215820
3127.259766	2692.363281
3126.416016	2798.595459
3125.571289	2657.815674
3124.726563	2677.029297
3123.881836	2738.321777
3123.037109	2830.451416
3122.192383	2827.189941
3121.346680	2874.406494
3120.501953	2829.081055
3119.656250	2696.864990
3118.810547	2825.364746
3117.964844	2651.154541
3117.119141	2717.975342
3116.273438	2745.552490
3115.427734	2787.126221
3114.581055	2837.088623
3113.734375	2710.620361
3112.888672	2704.583252
3112.041992	2788.126221
3111.194336	2664.525879
3110.347656	2680.886230
3109.500977	2694.443115
3108.653320	2735.970947
3107.806641	2816.644043
3106.958984	2740.680908
3106.111328	2734.645996
3105.263672	2910.334229
3104.416016	2719.786865
3103.567383	2618.734619
3102.719727	2799.945068
3101.871094	2810.668457
3101.022461	2662.161621
3100.174805	2843.277100
3099.325195	2717.153076
3098.476563	2817.229980
3097.627930	2827.941650
3096.778320	2847.023438
3095.929688	2838.191406
3095.080078	2678.686279
3094.230469	2798.217041
3093.380859	2825.659180
3092.531250	2716.434082
3091.681641	2830.323730
3090.831055	2854.958984
3089.981445	2851.710449
3089.130859	2801.081299
3088.280273	2772.761963
3087.429688	2911.626465
3086.579102	2802.510254
3085.728516	2763.062988
3084.876953	2787.680664
3084.025391	2784.446045
3083.174805	2781.212402
3082.323242	2702.823975
3081.471680	2888.854980
3080.620117	2793.778320
3079.767578	2762.722900
3078.916016	2829.038574
3078.063477	2747.924072
3077.211914	2711.329102
3076.359375	2797.083740
3075.506836	2660.414307
3074.654297	2960.170898
3073.800781	2837.414307
3072.948242	2842.513184
3072.095703	2750.375000
3071.242188	2769.374756
3070.388672	2793.922607
3069.535156	2765.703369
3068.681641	2787.467285
3067.828125	2831.431641
3066.973633	2811.546143
3066.120117	2691.766113
3065.265625	2727.400879
3064.411133	2812.958008
3063.556641	2773.672119
3062.702148	2751.038086
3061.847656	2692.365479
3060.992188	2739.060059
3060.137695	2802.370850
3059.282227	2790.832275
3058.426758	2746.045654
3057.571289	2756.684326
3056.715820	2930.754395
3055.860352	2783.489990
3055.004883	2891.038818
3054.148438	2843.502930
3053.291992	2909.482666
3052.436523	2812.137939
3051.580078	2756.335449
3050.723633	2750.356201
3049.866211	2871.638184
3049.009766	2782.660156
3048.153320	2820.929199
3047.295898	2867.481201
3046.438477	2742.605225
3045.581055	2872.083252
3044.723633	2785.940430
3043.866211	2818.650635
3043.007813	2873.453857
3042.150391	2845.364746
3041.291992	2836.618896
3040.433594	2791.974854
3039.576172	2824.657471
3038.716797	2752.422607
3037.858398	2760.258545
3037.000000	2770.851807
3036.140625	2817.313232
3035.282227	2786.509766
3034.422852	2761.233154
3033.563477	2810.431396
3032.704102	2851.340820
3031.844727	2837.094482
3030.984375	2803.555420
3030.125000	2938.158447
3029.264648	2841.230469
3028.404297	2782.908936
3027.543945	2922.959473
3026.683594	2757.219238
3025.823242	2814.607910
3024.962891	2786.617188
3024.101563	2750.375977
3023.241211	2882.060303
3022.379883	2851.319824
3021.518555	2765.553223
3020.657227	2773.360352
3019.795898	2847.186279
3018.933594	2753.210449
3018.072266	2879.266113
3017.209961	2815.560547
3016.347656	2850.843994
3015.485352	2858.629150
3014.623047	2825.188232
3013.760742	2808.244629
3012.898438	2912.189941
3012.035156	2807.336670
3011.172852	2812.375732
3010.309570	2905.285645
3009.446289	2869.123535
3008.583008	2887.875488
3007.719727	2744.684814
3006.855469	2873.220459
3005.992188	2795.929688
3005.127930	2921.671875
3004.263672	2838.912109
3003.400391	2871.362549
3002.535156	2862.672363
3001.670898	2988.322021
3000.806641	2815.147217
2999.941406	2938.023193
2999.077148	2901.924805
2998.211914	2731.587646
2997.346680	2870.853271
2996.481445	2763.571289
2995.616211	2861.709473
2994.750000	2817.438232
2993.884766	2918.273438
2993.018555	2849.372803
2992.152344	2917.329590
2991.287109	2919.593994
2990.419922	2828.839844
2989.553711	2795.557617
2988.687500	2871.683838
2987.820313	2767.308594
2986.954102	2775.063232
2986.086914	2760.946289
2985.219727	2806.963623
2984.352539	2850.233154
2983.485352	2767.803711
2982.617188	2923.070801
2981.750000	2889.821289
2980.881836	2916.663330
2980.013672	2894.347412
2979.145508	2820.167236
2978.277344	2877.033447
2977.409180	2846.546875
2976.541016	2829.713867
2975.671875	2971.128174
2974.803711	2905.178711
2973.934570	2855.615234
2973.065430	2827.883301
2972.196289	2876.503662
2971.326172	2854.229492
2970.457031	2872.847412
2969.587891	2905.085205
2968.717773	2893.716064
2967.847656	2866.004395
2966.977539	2860.093018
2966.107422	2799.714111
2965.237305	2774.754150
2964.366211	2891.375977
2963.496094	2765.689941
2962.625000	2846.893066
2961.753906	2778.401123
2960.882813	2688.164795
2960.011719	2842.791016
2959.140625	2815.131836
2958.269531	2811.956787
2957.397461	2784.311279
2956.525391	2800.172363
2955.654297	2829.619141
2954.782227	2924.281738
2953.909180	2907.504883
2953.037109	2890.733154
2952.165039	2917.429443
2951.291992	2865.354004
2950.418945	2816.010498
2949.546875	2731.386719
2948.673828	2872.106934
2947.799805	2874.356201
2946.926758	2879.318604
2946.053711	2949.399414
2945.179688	2796.999756
2944.306641	2962.007080
2943.432617	2850.334717
2942.558594	2814.622803
2941.683594	2757.233154
2940.809570	2908.586426
2939.935547	2954.190186
2939.060547	2929.323486
2938.185547	2915.302490
2937.311523	2830.853027
2936.436523	2911.650146
2935.560547	2984.296875
2934.685547	2959.445068
2933.810547	2891.285889
2932.934570	2966.607178
2932.058594	2787.509766
2931.182617	2830.352539
2930.306641	2959.755859
2929.430664	2902.471436
2928.554688	2953.388428
2927.677734	2831.224365
2926.801758	2887.543457
2925.924805	2935.734619
2925.047852	2851.471924
2924.170898	2896.950684
2923.293945	2831.635010
2922.416016	2995.968262
2921.539063	2917.152344
2920.661133	2927.482422
2919.784180	2813.600342
2918.906250	2937.333496
2918.028320	2980.046875
2917.149414	2982.263184
2916.271484	2868.445801
2915.392578	2832.907227
2914.514648	2897.189941
2913.635742	2842.778320
2912.756836	2985.242676
2911.877930	2882.301514
2910.999023	2865.659668
2910.119141	2892.149414
2909.240234	2867.426514
2908.360352	2858.878662
2907.480469	2850.333252
2906.600586	2922.600098
2905.720703	2962.524658
2904.840820	2892.032959
2903.960938	2926.564941
2903.080078	2839.950195
2902.199219	2912.159668
2901.319336	2892.850586
2900.438477	2943.503418
2899.556641	2908.054443
2898.675781	2770.407959
2897.794922	2950.140869
2896.913086	2839.420410
2896.031250	2890.040283
2895.150391	2911.075928
2894.268555	2838.040771
2893.385742	2805.335693
2892.503906	2888.167969
2891.622070	2860.837891
2890.739258	2876.489014
2889.856445	2972.696045
2888.973633	2931.940674
2888.090820	2907.305176
2887.208008	2850.468994
2886.325195	2933.199463
2885.441406	2801.248047
2884.558594	2857.131836
2883.674805	2915.679932
2882.791016	2842.796631
2881.907227	2968.364258
2881.023438	2989.331299
2880.138672	2937.915771
2879.254883	2811.472900
2878.370117	2969.120361
2877.485352	2898.978027
2876.601563	2992.267822
2875.715820	2841.791992
2874.831055	2948.450439
2873.946289	2819.450684
2873.060547	2872.535889
2872.175781	2866.717041
2871.290039	2876.957275
2870.404297	2962.116943
2869.518555	2897.427979
2868.631836	2923.707764
2867.746094	3016.841553
2866.859375	2978.915527
2865.973633	2882.181641
2865.086914	2959.237549
2864.200195	2894.611328
2863.313477	2910.176270
2862.425781	2858.938232
2861.539063	2949.304932
2860.651367	2930.129639
2859.764648	2897.607422
2858.876953	2958.551514
2857.989258	3104.907715
2857.101563	2898.867676
2856.212891	2962.450684
2855.325195	2847.227539
2854.436523	3004.178467
2853.547852	3014.361816
2852.659180	3019.207275
2851.770508	2925.383057
2850.881836	2940.906250
2849.993164	2900.441895
2849.103516	2974.603271
2848.214844	2832.876953
2847.325195	2928.341309
2846.435547	2863.927734
2845.545898	2967.347168
2844.656250	2929.580322
2843.765625	2891.825928
2842.875977	2944.604736
2841.985352	3023.986084
2841.094727	2906.388428
2840.204102	2967.122314
2839.313477	2918.749268
2838.422852	3019.364746
2837.531250	3024.194824
2836.640625	3068.913574
2835.749023	2999.283447
2834.857422	2908.407959
2833.965820	2950.465332
2833.074219	2883.545898
2832.182617	2901.678711
2831.290039	2853.385986
2830.398438	2948.551758
2829.505859	2990.568359
2828.613281	2998.049805
2827.720703	2992.253418
2826.828125	2936.020752
2825.934570	2991.282715
2825.041992	3038.565430
2824.148438	2931.938965
2823.254883	3080.026123
2822.361328	2989.342285
2821.467773	2946.424561
2820.574219	2900.869141
2819.680664	2905.700928
2818.786133	2992.704590
2817.891602	3013.421631
2816.998047	2991.733643
2816.103516	2956.805176
2815.208008	3022.551514
2814.313477	2982.332031
2813.418945	2965.958984
2812.523438	3007.841797
2811.627930	2867.045898
2810.732422	2951.281250
2809.836914	3009.024414
2808.941406	2931.801270
2808.045898	3039.795166
2807.149414	2851.494873
2806.253906	2940.953369
2805.357422	3062.114502
2804.460938	2754.927002
2803.564453	2955.382568
2802.667969	3068.552979
2801.770508	3023.131104
2800.874023	2930.164551
2799.976563	2934.972412
2799.079102	2960.909180
2798.182617	3002.682861
2797.284180	3049.723633
2796.386719	3001.708252
2795.489258	2945.789551
2794.590820	2987.538086
2793.692383	2973.859619
2792.794922	2994.483398
2791.896484	3023.013916
2790.997070	2975.049072
2790.098633	2964.018066
2789.200195	2995.176270
2788.300781	3010.507080
2787.401367	2952.031982
2786.501953	2977.906006
2785.602539	2901.010742
2784.703125	2966.401367
2783.803711	2955.383789
2782.903320	2997.041504
2782.003906	2930.725586
2781.103516	3043.458008
2780.203125	2866.598389
2779.302734	2931.930420
2778.401367	3002.503906
2777.500977	2852.047119
2776.600586	2933.133057
2775.699219	2993.151123
2774.797852	2921.661621
2773.896484	2963.256592
2772.995117	3070.560547
2772.093750	2943.895020
2771.191406	2961.813232
2770.289063	2963.959961
2769.387695	2971.360352
2768.485352	2949.863525
2767.583008	2862.715088
2766.680664	3006.675781
2765.777344	3069.199219
2764.875000	2900.696777
2763.971680	2915.973389
2763.068359	2839.397705
2762.165039	2920.273926
2761.261719	2914.552979
2760.358398	2940.308838
2759.455078	2921.473877
2758.550781	2858.069336
2757.646484	2894.308350
2756.742188	2959.368896
2755.837891	2979.854736
2754.933594	2906.000000
2754.029297	3002.466309
2753.124023	2915.534180
2752.219727	2891.488525
2751.314453	2980.053955
2750.409180	3018.843506
2749.503906	2945.053955
2748.598633	3054.506348
2747.693359	3038.308350
2746.787109	3035.198242
2745.880859	2932.676270
2744.975586	2968.819580
2744.069336	3010.181641
2743.163086	3124.745850
2742.255859	2920.312988
2741.349609	3058.380615
2740.442383	2893.228271
2739.536133	3026.029053
2738.628906	2892.288330
2737.721680	2920.553711
2736.813477	3014.106689
2735.906250	2880.432617
2734.999023	3002.683105
2734.090820	2978.699707
2733.182617	3001.707275
2732.274414	2828.975586
2731.366211	2979.856934
2730.458008	3044.595459
2729.549805	2999.756348
2728.640625	2918.418945
2727.731445	3092.656250
2726.823242	3131.261719
2725.914063	2885.714844
2725.004883	2989.500244
2724.094727	2973.378906
2723.185547	2923.390625
2722.275391	2891.654297
2721.365234	2984.952393
2720.456055	3018.322510
2719.545898	2994.397461
2718.634766	3030.358154
2717.724609	2993.424072
2716.813477	2896.642822
2715.903320	3021.074219
2714.992188	2926.921631
2714.081055	2913.439453
2713.169922	2949.377686
2712.258789	2896.889404
2711.346680	3117.419922
2710.435547	3059.721924
2709.523438	2939.662598
2708.611328	2972.968506
2707.699219	3011.459961
2706.787109	3138.267578
2705.875000	3007.883301
2704.961914	3150.232422
2704.049805	3040.661377
2703.136719	3003.819824
2702.223633	3044.864258
2701.310547	2974.293945
2700.397461	3103.557617
2699.483398	3014.839111
2698.570313	3006.566650
2697.656250	3112.418457
2696.742188	2977.062744
2695.828125	2989.542969
2694.914063	3087.568359
2694.000000	3066.330322
2693.084961	2995.859131
2692.170898	3023.874512
2691.255859	3031.154785
2690.340820	3035.842529
2689.425781	3004.270020
2688.510742	2967.528809
2687.594727	3029.183105
2686.679688	3111.526367
2685.763672	3017.844971
2684.847656	3009.590576
2683.931641	3019.450439
2683.015625	2954.285889
2682.099609	2971.910889
2681.182617	2994.702148
2680.266602	3058.856934
2679.349609	3091.967773
2678.432617	2913.110840
2677.515625	3049.611084
2676.598633	2958.675049
2675.681641	2960.777100
2674.763672	3050.705811
2673.846680	2910.741699
2672.928711	2918.015137
2672.010742	3033.725586
2671.092773	3046.139160
2670.173828	3061.129883
2669.255859	2990.954590
2668.336914	3042.072021
2667.418945	3002.880127
2666.500000	2974.018311
2665.581055	2996.744873
2664.662109	3040.092285
2663.742188	3021.550781
2662.823242	3013.325928
2661.903320	2966.444580
2660.983398	2986.576660
2660.063477	2980.937500
2659.143555	3037.124756
2658.223633	3031.479248
2657.303711	2956.305664
2656.382813	2971.272949
2655.461914	2978.512207
2654.541016	3006.340576
2653.620117	3054.747803
2652.699219	2989.923340
2651.778320	3084.625244
2650.856445	3030.105957
2649.935547	3055.330811
2649.013672	2954.548584
2648.091797	3074.904053
2647.169922	3074.403320
2646.248047	3004.508789
2645.325195	2993.740723
2644.403320	3093.456543
2643.480469	3049.281494
2642.557617	3097.586182
2641.634766	3086.809570
2640.711914	2950.221924
2639.789063	3016.489258
2638.865234	3103.269531
2637.941406	3046.303711
2637.018555	3094.561035
2636.094727	2947.820557
2635.170898	3116.639404
2634.246094	2926.342773
2633.322266	3051.516846
2632.397461	3012.561768
2631.473633	3019.761475
2630.548828	3162.800293
2629.624023	3141.783936
2628.699219	3033.659424
2627.773438	3125.389893
2626.848633	3032.671143
2625.922852	2988.640869
2624.997070	2975.351318
2624.071289	2992.787598
2623.145508	2900.150635
2622.219727	3032.761230
2621.293945	3047.620605
2620.367188	3021.539551
2619.440430	2969.886475
2618.513672	3010.324463
2617.586914	3060.978271
2616.660156	2999.116699
2615.733398	3075.319336
2614.805664	2908.680908
2613.878906	3079.428223
2612.951172	3025.268799
2612.023438	3063.096680
2611.095703	2993.631592
2610.166992	3059.544678
2609.239258	2979.888672
2608.310547	3107.055420
2607.382813	2984.022949
2606.454102	3072.864014
2605.525391	2993.257568
2604.596680	3048.900146
2603.666992	3063.709229
2602.738281	3086.164795
2601.808594	3060.160400
2600.878906	3197.346436
2599.949219	3117.797119
2599.019531	3099.446777
2598.089844	3078.553711
2597.159180	3067.859619
2596.229492	3179.455811
2595.298828	3036.292969
2594.368164	3094.374756
2593.437500	3058.220703
2592.506836	3044.992432
2591.575195	3166.683105
2590.644531	3046.544678
2589.712891	3018.056152
2588.781250	3091.349365
2587.849609	3098.477051
2586.917969	2973.340820
2585.986328	2993.200684
2585.053711	2982.541992
2584.122070	3096.456787
2583.189453	3067.991943
2582.256836	2983.624756
2581.324219	3049.204346
2580.391602	3028.382568
2579.458008	3055.830566
2578.525391	3103.587891
2577.591797	3113.239258
2576.658203	3074.647461
2575.724609	3089.377197
2574.791016	3058.416016
2573.857422	3060.455078
2572.922852	3019.359619
2571.989258	3112.730957
2571.054688	3145.197266
2570.120117	3012.810303
2569.185547	3161.920654
2568.250000	3085.348633
2567.315430	3026.545166
2566.379883	3076.739258
2565.445313	3078.771240
2564.509766	2984.527588
2563.574219	3113.230957
2562.638672	3097.526611
2561.702148	2998.261230
2560.766602	3088.920410
2559.830078	3103.605469
2558.893555	3141.065430
2557.957031	3069.694336
2557.020508	3054.011963
2556.083984	3066.163086
2555.146484	2999.897705
2554.209961	3125.858887
2553.272461	3112.705811
2552.334961	3074.275146
2551.397461	3101.579102
2550.459961	3037.888916
2549.521484	2994.435059
2548.583984	3148.065186
2547.645508	3028.823730
2546.707031	3109.152100
2545.768555	3045.512207
2544.830078	3072.789063
2543.891602	2973.833008
2542.952148	3071.786133
2542.012695	3184.849121
2541.074219	2992.563232
2540.134766	2966.846436
2539.194336	2981.496826
2538.254883	3044.060303
2537.315430	3066.257813
2536.375000	3151.477295
2535.434570	3153.483643
2534.494141	3037.032471
2533.553711	3162.534180
2532.613281	3038.560547
2531.672852	3116.157471
2530.731445	3145.873291
2529.791016	3150.396240
2528.849609	3008.880127
2527.908203	3232.444580
2526.966797	3065.790283
2526.024414	3103.039551
2525.083008	3069.821777
2524.140625	3016.488037
2523.198242	3003.418457
2522.255859	3126.163818
2521.313477	3108.051025
2520.371094	3112.571777
2519.428711	2976.319336
2518.485352	3227.170654
2517.541992	3058.275146
2516.598633	3105.514160
2515.655273	3127.616211
2514.711914	3197.434082
2513.768555	3066.323242
2512.824219	3058.289551
2511.879883	3062.811035
2510.936523	3054.780518
2509.992188	3054.281738
2509.046875	3126.551758
2508.102539	3060.810547
2507.158203	3075.361328
2506.212891	3072.351074
2505.267578	3076.864502
2504.322266	3038.753418
2503.376953	2895.368652
2502.431641	3102.927246
2501.485352	3087.384277
2500.540039	3026.745850
2499.593750	3061.323975
2498.647461	3173.538330
2497.701172	3000.219238
2496.754883	3137.446045
2495.807617	3081.855713
2494.861328	3111.389648
2493.914063	3128.400391
2492.966797	3097.861328
2492.019531	3052.321045
2491.072266	3146.878906
2490.125000	2998.800781
2489.176758	3028.318848
2488.229492	2945.315186
2487.281250	3199.819336
2486.333008	3156.805908
2485.384766	3021.341553
2484.436523	2998.360107
2483.487305	3087.806152
2482.538086	2952.419434
2481.589844	3076.807373
2480.640625	3143.723389
2479.691406	3165.678955
2478.742188	3047.840820
2477.791992	3202.080811
2476.842773	3096.751953
2475.892578	3198.539063
2474.942383	3073.288574
2473.992188	3130.151611
2473.041992	3274.276611
2472.090820	3104.194824
2471.140625	3041.364258
2470.189453	3053.329834
2469.238281	3082.735840
2468.287109	3194.358154
2467.335938	3119.097168
2466.384766	3123.569092
2465.433594	3050.834473
2464.481445	3122.547607
2463.529297	3119.547363
2462.577148	3079.209229
2461.625000	3073.728027
2460.672852	3200.135742
2459.719727	3137.411621
2458.767578	3109.534668
2457.814453	3163.745117
2456.861328	3113.491455
2455.908203	3145.305420
2454.955078	3050.322998
2454.000977	3094.564697
2453.047852	3094.058594
2452.093750	3123.369873
2451.139648	3140.249756
2450.185547	3055.281250
2449.231445	3119.354004
2448.277344	3094.012207
2447.322266	3110.885254
2446.368164	3053.282471
2445.413086	3090.012207
2444.458008	3106.877197
2443.502930	3151.029297
2442.546875	3120.745117
2441.591797	3117.754150
2440.635742	3027.967529
2439.680664	3129.131592
2438.724609	3066.642334
2437.768555	3028.960205
2436.811523	3135.030762
2435.855469	3080.004395
2434.898438	3109.230225
2433.942383	3091.381836
2432.985352	3093.352783
2432.028320	3001.224854
2431.070313	3037.871582
2430.113281	3213.131348
2429.156250	3197.755127
2428.198242	3145.264404
2427.240234	3075.471191
2426.282227	3015.595947
2425.324219	3024.996094
2424.365234	3111.056641
2423.407227	3110.547363
2422.448242	3038.344238
2421.489258	3161.437012
2420.530273	3141.148193
2419.571289	3160.402100
2418.612305	3115.414063
2417.652344	3035.858154
2416.693359	3104.514893
2415.733398	3126.231201
2414.773438	3110.905518
2413.813477	3172.110352
2412.853516	3065.459961
2411.892578	3082.232422
2410.932617	3113.803467
2409.971680	3071.355469
2409.010742	3016.588379
2408.049805	2998.831543
2407.087891	3212.859863
2406.126953	3121.116211
2405.166016	3164.973877
2404.205078	3127.487793
2403.242188	3139.296143
2402.281250	3141.245850
2401.318359	3103.781494
2400.355469	3147.605713
2399.392578	3122.465088
2398.431641	3141.650635
2397.468750	3106.672119
2396.505859	3148.005371
2395.542969	3093.349854
2394.578125	3114.987793
2393.615234	2996.393066
2392.652344	2983.603760
2391.687500	3138.050049
2390.724609	3122.782715
2389.759766	3178.816162
2388.796875	3146.340332
2387.832031	3140.909668
2386.867188	3069.134033
2385.902344	3117.768799
2384.937500	3095.149658
2383.972656	3082.362305
2383.007813	3084.312744
2382.042969	3157.465332
2381.078125	3019.475830
2380.111328	3161.339600
2379.146484	3128.918701
2378.179688	3000.816162
2377.214844	3272.635010
2376.248047	2982.662842
2375.281250	3107.248779
2374.314453	3104.287354
2373.347656	3211.650879
2372.380859	2995.415527
2371.414063	3210.598145
2370.447266	3104.703369
2369.480469	3140.944824
2368.511719	3128.181885
2367.544922	3147.262939
2366.576172	3127.156494
2365.609375	3104.607910
2364.640625	3153.059570
2363.671875	3061.980469
2362.703125	3071.267578
2361.736328	3075.657715
2360.767578	3075.153320
2359.796875	3128.461670
2358.828125	3101.046875
2357.859375	3115.209961
2356.890625	3043.799316
2355.919922	3079.966553
2354.951172	3165.002197
2353.980469	3164.483154
2353.011719	3161.520996
2352.041016	3002.219727
2351.070313	3065.229980
2350.099609	3113.567627
2349.128906	3081.316162
2348.158203	3141.841064
2347.187500	3033.930176
2346.216797	3084.681152
2345.244141	3142.735596
2344.273438	3042.196045
2343.302734	3036.818604
2342.330078	3111.923584
2341.357422	3167.496582
2340.386719	3162.101074
2339.414063	3064.077881
2338.441406	3146.440430
2337.468750	3209.281494
2336.496094	3140.535400
2335.523438	3181.432373
2334.550781	3034.773682
2333.576172	3160.906982
2332.603516	3082.474365
2331.628906	3135.525635
2330.656250	3144.747314
2329.681641	3054.187500
2328.708984	3231.311279
2327.734375	3014.260254
2326.759766	3045.387207
2325.785156	3149.464111
2324.810547	3151.378906
2323.835938	3187.330078
2322.861328	3152.775635
2321.884766	3132.814697
2320.910156	3083.700195
2319.935547	3267.845459
2318.958984	3121.555664
2317.984375	3167.190918
2317.007813	3229.810303
2316.031250	3093.310547
2315.054688	3131.644775
2314.078125	3160.257568
2313.101563	3242.251221
2312.125000	3125.250000
2311.148438	3068.938232
2310.171875	3112.095947
2309.193359	3203.744141
2308.216797	2963.158691
2307.240234	3212.390137
2306.261719	3158.533691
2305.283203	3150.744141
2304.306641	3162.343018
2303.328125	2989.801270
2302.349609	3112.855469
2301.371094	3090.545898
2300.392578	3223.229736
2299.414063	3229.964355
2298.433594	3096.286377
2297.455078	3093.357422
2296.476563	3104.949707
2295.496094	3094.760986
2294.517578	3193.443115
2293.537109	3093.744629
2292.556641	3117.421387
2291.576172	3114.491211
2290.595703	2971.336182
2289.615234	3103.799072
2288.634766	3163.711426
2287.654297	3194.606201
2286.673828	2995.961426
2285.693359	3007.547852
2284.710938	3226.846436
2283.730469	2979.995850
2282.748047	3114.718750
2281.767578	3162.489502
2280.785156	3101.626953
2279.802734	3069.744141
2278.820313	3199.537598
2277.837891	3063.910400
2276.855469	3029.637207
2275.873047	3099.079590
2274.890625	3081.691162
2273.906250	3066.718994
2272.923828	3136.120850
2271.941406	3082.582275
2270.957031	3270.036621
2269.972656	3214.083984
2268.990234	3155.740479
2268.005859	3049.245117
2267.021484	3113.764404
2266.037109	3195.116943
2265.052734	3184.962402
2264.068359	3076.124512
2263.083984	3065.992676
2262.097656	3012.552490
2261.113281	3192.491943
2260.126953	3153.480713
2259.142578	3068.787109
2258.156250	3217.368408
2257.171875	3137.500488
2256.185547	3134.580811
2255.199219	3093.207275
2254.212891	3078.280518
2253.226563	3118.619141
2252.240234	3079.670654
2251.253906	3071.958740
2250.265625	3124.285400
2249.279297	3133.375977
2248.291016	3022.430420
2247.304688	3163.549072
2246.316406	3151.029541
2245.330078	3172.106445
2244.341797	3142.795898
2243.353516	3123.089600
2242.365234	3108.186035
2241.376953	3083.696045
2240.388672	3035.238770
2239.400391	3061.107666
2238.410156	3072.587891
2237.421875	3031.344971
2236.431641	3095.536377
2235.443359	3049.511963
2234.453125	3080.147217
2233.464844	3029.350830
2232.474609	3179.696533
2231.484375	3045.111816
2230.494141	3216.947266
2229.503906	3101.546143
2228.513672	3108.214111
2227.523438	3095.740723
2226.531250	3097.623291
2225.541016	3142.553955
2224.548828	3087.039307
2223.558594	3184.554443
2222.566406	3093.194580
2221.576172	3173.946289
2220.583984	3135.189941
2219.591797	3110.781738
2218.599609	3067.270752
2217.607422	3030.939209
2216.615234	3135.514648
2215.621094	3041.879883
2214.628906	3043.766357
2213.636719	3129.192871
2212.642578	3205.045410
2211.650391	3166.340332
2210.656250	3180.133301
2209.662109	3053.188721
2208.669922	3086.074951
2207.675781	3169.024902
2206.681641	3104.131836
2205.687500	3189.435303
2204.693359	3110.260010
2203.697266	3078.769531
2202.703125	3032.994141
2201.708984	3149.220703
2200.712891	3103.448486
2199.718750	3081.505127
2198.722656	3092.902588
2197.726563	3073.348633
2196.732422	3094.264404
2195.736328	3131.831787
2194.740234	3164.627930
2193.744141	3135.558350
2192.746094	3156.449707
2191.750000	3065.556641
2190.753906	3150.654297
2189.757813	3154.890381
2188.759766	3123.468750
2187.763672	3068.290771
2186.765625	3096.300781
2185.767578	3171.819336
2184.769531	3085.778809
2183.771484	3030.642822
2182.773438	3087.136963
2181.775391	3221.965088
2180.777344	3147.842285
2179.779297	3111.720459
2178.781250	3132.566162
2177.781250	3155.777588
2176.783203	3169.491943
2175.783203	3062.230469
2174.785156	3142.360107
2173.785156	3101.531738
2172.785156	3117.616455
2171.785156	3100.509766
2170.785156	3126.069092
2169.785156	3132.662842
2168.785156	3127.408203
2167.785156	3067.671387
2166.783203	3055.323242
2165.783203	2960.096680
2164.781250	3231.892822
2163.781250	3165.075928
2162.779297	3188.223145
2161.777344	3142.733887
2160.777344	3087.794922
2159.775391	3174.818115
2158.773438	3105.699707
2157.769531	3119.377441
2156.767578	3123.592285
2155.765625	3132.534180
2154.763672	3091.833252
2153.759766	3098.413818
2152.757813	3199.512207
2151.753906	3085.579102
2150.750000	3203.181641
2149.748047	3160.140381
2148.744141	3140.727783
2147.740234	3166.181396
2146.736328	3066.511230
2145.732422	3127.372803
2144.728516	3103.258057
2143.722656	3197.126465
2142.718750	3189.521973
2141.712891	3054.548584
2140.708984	3087.061523
2139.703125	3296.409424
2138.699219	3109.618652
2137.693359	3153.892090
2136.687500	3240.572754
2135.681641	3240.038086
2134.675781	3131.127441
2133.669922	3154.166992
2132.664063	3104.187012
2131.656250	3240.255371
2130.650391	3105.517334
2129.644531	3201.521484
2128.636719	3057.419189
2127.628906	3120.453369
2126.623047	3136.408936
2125.615234	3333.501953
2124.607422	3170.655518
2123.599609	3254.794678
2122.591797	3228.392822
2121.583984	3058.591309
2120.574219	3199.120605
2119.566406	3151.589111
2118.558594	3162.817871
2117.548828	3159.946533
2116.541016	3121.840820
2115.531250	3116.628174
2114.521484	3144.292725
2113.511719	3120.295166
2112.503906	3218.373535
2111.494141	3222.536621
2110.482422	3250.164795
2109.472656	3249.628418
2108.462891	3178.714355
2107.453125	3185.226318
2106.441406	3053.372559
2105.431641	3097.418701
2104.419922	3183.648926
2103.408203	3258.130615
2102.398438	3156.818115
2101.386719	3196.131348
2100.375000	3176.861084
2099.363281	3164.624268
2098.351563	3187.522217
2097.339844	3168.262451
2096.326172	3146.667969
2095.314453	3197.647705
2094.300781	3288.398926
2093.289063	3173.190430
2092.275391	3151.608887
2091.263672	3200.214355
2090.250000	3092.093994
2089.236328	3175.771729
2088.222656	3070.029053
2087.208984	3275.247559
2086.195313	3202.247070
2085.181641	3154.977539
2084.166016	3128.753418
2083.152344	3212.341553
2082.136719	3193.123779
2081.123047	3145.886719
2080.107422	3206.079346
2079.091797	3240.570313
2078.078125	3179.342529
2077.062500	3199.822510
2076.046875	3196.960205
2075.031250	3100.772217
2074.013672	3074.599365
2072.998047	3211.702393
2071.982422	3211.171631
2070.964844	3024.111328
2069.949219	3126.185791
2068.931641	3095.368164
2067.916016	3160.109619
2066.898438	3196.868408
2065.880859	3252.252686
2064.863281	3156.213379
2063.845703	3204.599121
2062.828125	3173.798340
2061.810547	3143.007813
2060.791016	3189.043701
2059.773438	3311.867676
2058.753906	3048.369385
2057.736328	3303.792969
2056.716797	3079.928711
2055.699219	3153.846436
2054.679688	3132.395752
2053.660156	3187.679688
2052.640625	3147.632813
2051.621094	3198.247070
2050.601563	3144.268066
2049.580078	3218.101318
2048.560547	3124.643066
2047.541016	3186.841064
2046.519531	3146.833496
2045.500000	3211.329102
2044.478516	3071.500732
2043.457031	3082.598877
2042.435547	3128.506104
2041.414063	3083.899658
2040.392578	3099.630127
2039.371094	3150.150879
2038.349609	3103.243408
2037.328125	3239.547119
2036.306641	3037.297363
2035.283203	3025.204102
2034.261719	3154.499268
2033.238281	3184.103760
2032.214844	3125.651367
2031.191406	3143.667480
2030.169922	3175.574707
2029.146484	2971.253174
2028.121094	3116.636719
2027.097656	3125.381592
2026.074219	3080.884766
2025.050781	3078.060547
2024.025391	3061.353516
2023.001953	3053.906250
2021.976563	3132.048828
2020.953125	3143.094482
2019.927734	3105.575684
2018.902344	3128.181885
2017.876953	3079.119629
2016.851563	3120.212646
2015.826172	3258.349365
2014.800781	3142.284912
2013.775391	3074.770996
2012.748047	3074.262207
2011.722656	3140.724365
2010.695313	3124.041748
2009.669922	3181.239258
2008.642578	3088.384277
2007.615234	3224.034668
2006.587891	3075.824219
2005.560547	3077.622070
2004.533203	3003.298584
2003.505859	3092.747070
2002.478516	3055.340088
2001.451172	3027.167725
2000.421875	3012.835449
1999.394531	3159.842041
1998.365234	3138.579102
1997.335938	3128.843262
1996.308594	3172.093994
1995.279297	3054.103027
1994.250000	3058.202881
1993.220703	3140.585693
1992.191406	3045.679199
1991.162109	2987.631836
1990.130859	3023.958252
1989.101563	3186.825195
1988.072266	3029.858154
1987.041016	3093.761719
1986.009766	3107.047852
1984.980469	3122.629150
1983.949219	3193.382324
1982.917969	3080.218506
1981.886719	3146.358398
1980.855469	3182.603516
1979.824219	3087.877441
1978.792969	3151.686035
1977.759766	3109.821777
1976.728516	3169.012451
1975.695313	3140.935303
1974.664063	3145.005859
1973.630859	3082.513184
1972.597656	3130.194336
1971.564453	3106.730713
1970.531250	3145.215332
1969.498047	3130.931641
1968.464844	3050.145752
1967.431641	3104.671143
1966.398438	3129.375000
1965.363281	3101.349854
1964.330078	3130.629150
1963.294922	3104.904297
1962.261719	3081.479004
1961.226563	3074.095947
1960.191406	3162.908203
1959.156250	3125.744873
1958.121094	3154.990723
1957.085938	2939.286133
1956.050781	2979.996826
1955.015625	3098.499512
1953.980469	3104.849854
1952.943359	3108.910156
1951.908203	3062.649170
1950.871094	3123.887207
1949.833984	3109.650146
1948.796875	3164.001465
1947.761719	3092.618408
1946.724609	3172.093262
1945.687500	3032.182617
1944.648438	3159.617920
1943.611328	3156.809570
1942.574219	3087.770264
1941.537109	3055.289307
1940.498047	3045.650146
1939.458984	3161.563232
1938.421875	3044.639404
1937.382813	3041.852295
1936.343750	2991.152832
1935.304688	3132.091064
1934.265625	3211.400146
1933.226563	2996.505371
1932.187500	3100.891357
1931.148438	3052.503174
1930.107422	3079.348389
1929.068359	3124.415771
1928.027344	3057.819336
1926.988281	3036.808105
1925.947266	3127.416016
1924.906250	3060.851807
1923.865234	3087.668213
1922.824219	3084.878906
1921.783203	3111.682373
1920.742188	3120.269287
1919.701172	3087.894043
1918.658203	3101.032227
1917.617188	3102.792236
1916.574219	3004.478027
1915.533203	3154.064453
1914.490234	2998.933105
1913.447266	3182.569580
1912.404297	3170.676514
1911.361328	3136.062500
1910.318359	2971.948242
1909.275391	2982.813477
1908.232422	3043.645264
1907.189453	2965.925781
1906.144531	2969.974365
1905.101563	3053.480225
1904.056641	3139.228027
1903.013672	3034.310059
1901.968750	3090.533936
1900.923828	3114.976807
1899.878906	2964.747559
1898.833984	3002.810791
1897.789063	3115.692139
1896.744141	3053.959473
1895.697266	3094.255371
1894.652344	3150.403320
1893.605469	3072.832520
1892.560547	3017.944580
1891.513672	3067.280762
1890.468750	2994.291992
1889.421875	2977.942383
1888.375000	3027.260254
1887.328125	2990.535645
1886.281250	3071.523438
1885.232422	3127.590332
1884.185547	3027.511230
1883.138672	2943.301514
1882.089844	3044.600586
1881.042969	3062.187256
1879.994141	3020.976318
1878.945313	3052.125977
1877.898438	3085.525391
1876.849609	3017.210205
1875.800781	2912.761963
1874.751953	3020.725830
1873.703125	3047.331055
1872.652344	3085.220215
1871.603516	3014.702881
1870.552734	3113.546143
1869.503906	3002.413330
1868.453125	3010.942383
1867.404297	3012.698486
1866.353516	3005.428467
1865.302734	3086.143066
1864.251953	3020.218018
1863.201172	3021.970947
1862.150391	3075.584229
1861.099609	2996.166992
1860.046875	2948.333008
1858.996094	3033.483398
1857.943359	3105.085205
1856.892578	3064.015625
1855.839844	3016.201904
1854.787109	3006.691406
1853.734375	2970.161865
1852.681641	2989.930908
1851.628906	3059.217041
1850.576172	3128.479980
1849.523438	3013.192627
1848.470703	3017.191162
1847.416016	2906.459717
1846.363281	2968.953857
1845.308594	3049.417725
1844.253906	3024.177246
1843.201172	3059.643555
1842.146484	2971.473633
1841.091797	2910.301025
1840.037109	2932.286377
1838.982422	2985.716309
1837.927734	2994.204346
1836.871094	2946.543457
1835.816406	3069.553711
1834.759766	2976.993896
1833.705078	2933.848633
1832.648438	2937.849121
1831.591797	2861.064941
1830.537109	3031.102051
1829.480469	2992.462646
1828.423828	2931.407471
1827.365234	2969.041748
1826.308594	3026.842041
1825.251953	3015.129395
1824.195313	3054.971924
1823.136719	3047.740234
1822.078125	2959.848877
1821.021484	3042.244873
1819.962891	3032.778809
1818.904297	3079.302979
1817.845703	3054.159912
1816.787109	3017.831299
1815.728516	3021.805420
1814.669922	2947.448242
1813.611328	3018.561279
1812.550781	3120.972412
1811.492188	3037.687744
1810.431641	2976.796143
1809.373047	3135.065918
1808.312500	3029.462646
1807.251953	3042.370361
1806.191406	3086.563965
1805.130859	3054.764648
1804.070313	2984.993164
1803.009766	2901.841309
1801.949219	2968.363770
1800.886719	3070.594727
1799.826172	3023.194336
1798.763672	3060.641602
1797.703125	3037.811279
1796.640625	3008.293213
1795.578125	2954.240723
1794.515625	3056.371094
1793.453125	2964.408936
1792.390625	3048.661865
1791.328125	3001.327637
1790.263672	2996.368408
1789.201172	2946.829590
1788.138672	2926.280029
1787.074219	3075.090088
1786.009766	2909.708740
1784.947266	2938.182373
1783.882813	3037.916992
1782.818359	2979.512695
1781.753906	3048.036621
1780.689453	3051.980469
1779.625000	3011.408447
1778.558594	3037.610596
1777.494141	2939.204834
1776.429688	3034.373047
1775.363281	2996.054932
1774.296875	2948.854004
1773.232422	3052.866943
1772.166016	2965.655518
1771.099609	3080.744385
1770.033203	2962.444092
1768.966797	3028.610596
1767.900391	2941.461182
1766.832031	2947.634277
1765.765625	3044.862549
1764.699219	3026.590332
1763.630859	2892.875488
1762.562500	2994.503418
1761.496094	2949.615234
1760.427734	2909.180176
1759.359375	3010.754395
1758.291016	2914.864502
1757.222656	2923.250000
1756.154297	2993.724609
1755.083984	3010.962646
1754.015625	2959.472900
1752.945313	2967.844971
1751.876953	2880.922119
1750.806641	2869.362549
1749.736328	3004.020264
1748.667969	2914.919678
1747.597656	2983.086182
1746.527344	2998.087891
1745.457031	3028.581787
1744.384766	2939.536133
1743.314453	2956.750488
1742.244141	2998.299561
1741.171875	2949.126221
1740.101563	2935.361572
1739.029297	3023.337891
1737.957031	2945.437988
1736.884766	2936.102539
1735.812500	2986.455078
1734.740234	3027.949951
1733.667969	3000.926514
1732.595703	2945.189209
1731.523438	2962.370117
1730.449219	2997.214600
1729.376953	2952.547363
1728.302734	3055.828857
1727.230469	2914.031982
1726.156250	2973.140625
1725.082031	2946.161621
1724.007813	3011.864502
1722.933594	3004.742920
1721.859375	3010.858154
1720.785156	2975.069092
1719.710938	2888.576416
1718.634766	2934.391357
1717.560547	2865.568359
1716.484375	3023.771484
1715.408203	2880.035889
1714.333984	2888.367432
1713.257813	2861.450928
1712.181641	3017.346191
1711.105469	2889.121826
1710.029297	2877.630371
1708.951172	2905.767090
1707.875000	2940.496826
1706.798828	2942.206055
1705.720703	2884.508301
1704.644531	2950.022217
1703.566406	2997.918213
1702.488281	2918.248291
1701.410156	2825.412354
1700.332031	2879.899902
1699.253906	2991.518066
1698.175781	2907.506836
1697.097656	2885.047852
1696.017578	2831.839355
1694.939453	2928.014404
1693.859375	2942.898193
1692.781250	2951.189453
1691.701172	2865.073242
1690.621094	2985.324219
1689.541016	2883.867676
1688.462891	2881.191162
1687.380859	2880.709229
1686.300781	2902.163818
1685.220703	2923.610840
1684.140625	2923.122070
1683.058594	2856.857422
1681.978516	2926.528564
1680.896484	2919.463623
1679.814453	2844.467041
1678.734375	2865.901855
1677.652344	2891.710693
1676.570313	2702.859131
1675.488281	2927.972412
1674.404297	2791.728027
1673.322266	2878.829834
1672.240234	3005.302002
1671.156250	2917.259521
1670.074219	2809.553223
1668.990234	2933.785400
1667.906250	2799.863525
1666.822266	2937.177734
1665.738281	2941.059570
1664.654297	2809.389648
1663.570313	2870.125488
1662.486328	2876.201904
1661.402344	2803.608887
1660.316406	2794.400391
1659.232422	2846.359863
1658.146484	2808.753662
1657.062500	2893.449219
1655.976563	2884.231445
1654.890625	2883.748535
1653.804688	2920.370605
1652.718750	2889.329834
1651.632813	2910.665283
1650.546875	2831.642334
1649.458984	2898.784668
1648.373047	2821.970947
1647.285156	2995.934326
1646.199219	2971.451660
1645.111328	2766.060791
1644.023438	2907.255371
1642.937500	2880.620605
1641.849609	2871.423828
1640.759766	2951.538330
1639.671875	2933.620850
1638.583984	2795.945313
1637.496094	2849.906006
1636.406250	2838.544678
1635.318359	2892.479980
1634.228516	2807.128906
1633.138672	2869.753906
1632.050781	2845.344482
1630.960938	2827.468018
1629.871094	2887.883301
1628.781250	2804.778076
1627.689453	2817.351563
1626.599609	2847.308594
1625.509766	2803.368408
1624.417969	2807.244385
1623.328125	2924.084961
1622.236328	2817.163818
1621.144531	2760.227539
1620.052734	2720.680908
1618.960938	2822.260498
1617.869141	2828.299316
1616.777344	2756.207275
1615.685547	2931.505615
1614.593750	2824.708008
1613.500000	2817.727051
1612.408203	2806.410645
1611.314453	2836.298096
1610.222656	2814.142090
1609.128906	2804.999512
1608.035156	2876.051270
1606.941406	2804.059082
1605.847656	2840.421143
1604.753906	2848.609863
1603.658203	2815.644043
1602.564453	2914.785645
1601.470703	2840.681641
1600.375000	2842.369873
1599.281250	2863.537598
1598.185547	2824.104248
1597.089844	2741.409912
1595.994141	2756.093506
1594.898438	2770.771973
1593.802734	2781.120361
1592.707031	2841.196777
1591.609375	2808.291748
1590.513672	2872.666504
1589.417969	2846.250488
1588.320313	2813.361084
1587.222656	2776.161621
1586.126953	2697.933105
1585.029297	2760.112061
1583.931641	2852.501221
1582.833984	2713.847168
1581.736328	2732.819580
1580.636719	2838.115723
1579.539063	2846.270996
1578.441406	2761.649414
1577.341797	2866.887695
1576.244141	2859.936035
1575.144531	2816.326904
1574.044922	2690.801025
1572.945313	2849.873291
1571.845703	2862.327148
1570.746094	2788.576416
1569.646484	2764.407227
1568.546875	2781.177490
1567.445313	2877.636963
1566.345703	2799.625732
1565.244141	2786.236328
1564.144531	2757.781738
1563.042969	2796.063232
1561.941406	2778.376953
1560.839844	2823.097168
1559.738281	2837.682861
1558.636719	2731.805908
1557.535156	2688.333740
1556.431641	2803.998779
1555.330078	2831.477051
1554.228516	2760.065186
1553.125000	2759.601563
1552.021484	2754.840332
1550.917969	2644.804199
1549.816406	2820.507324
1548.712891	2753.452393
1547.609375	2789.495850
1546.503906	2709.586182
1545.400391	2713.424316
1544.296875	2815.992676
1543.191406	2774.745850
1542.087891	2748.532227
1540.982422	2745.925293
1539.876953	2844.128906
1538.773438	2809.338379
1537.667969	2733.820313
1536.562500	2716.210449
1535.457031	2792.918213
1534.349609	2717.440674
1533.244141	2759.838379
1532.138672	2667.252686
1531.031250	2707.502441
1529.925781	2709.188965
1528.818359	2757.983398
1527.710938	2746.815186
1526.603516	2718.525879
1525.496094	2763.013184
1524.388672	2668.395264
1523.281250	2672.225586
1522.173828	2708.141602
1521.064453	2684.159668
1519.957031	2623.832764
1518.847656	2563.526123
1517.740234	2646.465088
1516.630859	2776.397461
1515.521484	2649.849121
1514.412109	2719.911621
1513.302734	2676.729248
1512.193359	2659.191650
1511.083984	2682.235352
1509.974609	2673.243652
1508.863281	2640.771484
1507.753906	2697.957764
1506.642578	2644.151367
1505.531250	2647.974121
1504.421875	2771.264893
1503.310547	2736.670166
1502.199219	2712.750488
1501.087891	2652.589355
1499.976563	2643.615234
1498.863281	2611.196533
1497.751953	2615.019775
1496.638672	2693.421875
1495.527344	2731.317871
1494.414063	2649.912354
1493.300781	2745.307129
1492.189453	2727.809570
1491.076172	2661.349121
1489.962891	2631.099121
1488.849609	2634.912842
1487.734375	2681.285400
1486.621094	2638.281250
1485.507813	2725.055908
1484.392578	2675.677734
1483.277344	2673.100830
1482.164063	2717.301270
1481.048828	2667.948975
1479.933594	2669.625244
1478.818359	2624.547852
1477.703125	2764.341553
1476.587891	2653.406006
1475.472656	2691.192383
1474.355469	2586.677490
1473.240234	2709.396240
1472.123047	2634.635010
1471.005859	2644.804443
1469.890625	2680.437744
1468.773438	2533.573730
1467.656250	2641.346680
1466.539063	2691.810791
1465.421875	2716.807373
1464.302734	2682.421875
1463.185547	2567.482910
1462.068359	2683.637939
1460.949219	2681.066406
1459.830078	2561.947266
1458.712891	2699.231445
1457.593750	2698.776611
1456.474609	2615.720215
1455.355469	2568.691406
1454.236328	2574.610352
1453.117188	2667.321045
1451.996094	2692.270264
1450.876953	2677.003174
1449.755859	2682.899414
1448.636719	2652.830322
1447.515625	2654.498291
1446.394531	2573.689209
1445.273438	2776.239990
1444.152344	2744.061035
1443.031250	2623.116943
1441.910156	2609.994629
1440.789063	2683.509521
1439.667969	2607.001953
1438.544922	2646.695801
1437.423828	2604.010986
1436.300781	2639.468506
1435.177734	2613.688965
1434.054688	2701.904297
1432.931641	2697.227783
1431.808594	2570.163818
1430.685547	2717.416016
1429.562500	2607.266846
1428.439453	2634.245117
1427.314453	2581.082520
1426.191406	2662.873779
1425.066406	2645.560547
1423.941406	2678.836670
1422.816406	2537.195313
1421.691406	2633.687012
1420.566406	2561.618408
1419.441406	2563.292480
1418.316406	2539.695313
1417.191406	2701.392578
1416.064453	2618.834961
1414.939453	2654.174805
1413.812500	2529.563721
1412.687500	2537.553223
1411.560547	2566.577637
1410.433594	2589.281738
1409.306641	2584.638672
1408.179688	2672.515381
1407.052734	2634.222168
1405.923828	2579.126221
1404.796875	2631.231445
1403.667969	2624.483398
1402.541016	2680.765137
1401.412109	2650.904785
1400.283203	2656.757813
1399.156250	2584.914307
1398.027344	2588.677002
1396.898438	2539.959473
1395.767578	2600.395508
1394.638672	2522.314453
1393.509766	2601.615479
1392.378906	2588.589844
1391.250000	2567.178955
1390.119141	2612.879639
1388.988281	2532.765381
1387.859375	2597.322998
1386.728516	2506.758301
1385.597656	2617.401611
1384.464844	2600.197510
1383.333984	2572.524658
1382.203125	2557.428467
1381.070313	2536.054688
1379.939453	2598.440918
1378.806641	2585.441162
1377.673828	2505.465820
1376.542969	2565.732666
1375.410156	2582.038330
1374.277344	2453.986328
1373.144531	2493.314209
1372.009766	2568.181641
1370.876953	2555.201660
1369.744141	2600.763916
1368.609375	2504.170898
1367.476563	2503.747559
1366.341797	2591.087158
1365.207031	2423.510498
1364.072266	2542.166992
1362.937500	2499.966797
1361.802734	2459.868896
1360.667969	2430.223389
1359.533203	2542.535889
1358.396484	2627.677734
1357.261719	2543.762939
1356.125000	2564.197021
1354.988281	2382.276611
1353.853516	2467.387451
1352.716797	2621.286377
1351.580078	2554.123047
1350.443359	2522.421387
1349.304688	2428.201660
1348.167969	2519.484375
1347.031250	2531.559814
1345.892578	2564.463379
1344.755859	2474.465576
1343.617188	2590.668701
1342.478516	2488.203857
1341.339844	2516.928467
1340.201172	2531.072998
1339.062500	2532.725830
1337.923828	2411.612793
1336.785156	2513.145264
1335.646484	2348.394775
1334.505859	2406.229248
1333.365234	2443.250732
1332.226563	2407.494141
1331.085938	2459.053223
1329.945313	2452.402100
1328.804688	2587.054199
1327.664063	2455.727295
1326.523438	2447.002686
1325.382813	2494.357178
1324.240234	2471.092773
1323.099609	2499.741455
1321.957031	2520.076660
1320.816406	2455.309814
1319.673828	2440.368164
1318.531250	2522.946533
1317.388672	2568.157227
1316.246094	2339.572510
1315.103516	2455.305664
1313.960938	2523.311768
1312.816406	2448.255127
1311.673828	2485.148926
1310.529297	2519.957764
1309.386719	2401.427979
1308.242188	2392.734619
1307.097656	2402.685791
1305.953125	2393.995117
1304.808594	2426.718994
1303.664063	2451.150635
1302.519531	2471.434326
1301.375000	2454.459473
1300.228516	2464.389404
1299.083984	2435.008301
1297.937500	2432.527344
1296.791016	2403.161377
1295.644531	2396.551025
1294.498047	2464.369873
1293.351563	2422.610840
1292.205078	2403.599854
1291.058594	2461.051025
1289.912109	2359.398682
1288.763672	2470.545166
1287.617188	2445.342773
1286.468750	2401.563721
1285.320313	2368.122803
1284.173828	2462.677979
1283.025391	2474.644043
1281.876953	2511.368896
1280.726563	2411.908447
1279.578125	2347.550537
1278.429688	2450.278564
1277.279297	2400.371094
1276.130859	2416.458740
1274.980469	2389.249756
1273.832031	2491.900879
1272.681641	2398.743408
1271.531250	2425.122314
1270.380859	2375.269287
1269.230469	2444.897217
1268.078125	2419.770020
1266.927734	2369.942871
1265.777344	2392.186279
1264.625000	2453.530518
1263.474609	2446.940430
1262.322266	2411.545654
1261.169922	2341.188965
1260.017578	2394.271973
1258.865234	2385.639404
1257.712891	2226.904541
1256.560547	2483.512695
1255.406250	2363.870117
1254.253906	2394.296875
1253.099609	2453.480957
1251.947266	2457.173584
1250.792969	2440.323486
1249.638672	2394.725830
1248.484375	2338.876465
1247.330078	2309.736084
1246.175781	2336.029785
1245.021484	2374.628906
1243.867188	2372.173828
1242.710938	2388.184814
1241.556641	2328.290039
1240.400391	2360.710938
1239.244141	2458.741943
1238.087891	2405.016357
1236.933594	2377.958496
1235.775391	2357.058594
1234.619141	2420.185547
1233.462891	2403.383301
1232.306641	2247.283691
1231.148438	2273.529053
1229.992188	2410.350586
1228.833984	2262.519287
1227.675781	2376.777100
1226.519531	2339.530518
1225.361328	2386.202393
1224.203125	2336.689697
1223.042969	2297.422852
1221.884766	2339.986816
1220.726563	2288.461914
1219.566406	2322.833984
1218.408203	2291.773193
1217.248047	2344.529297
1216.089844	2366.611816
1214.929688	2300.822021
1213.769531	2298.388184
1212.609375	2289.826904
1211.449219	2305.776367
1210.287109	2413.608887
1209.126953	2360.116699
1207.964844	2353.591797
1206.804688	2285.841064
1205.642578	2289.533691
1204.482422	2336.069824
1203.320313	2298.954834
1202.158203	2208.824219
1200.996094	2283.898926
1199.832031	2320.209961
1198.669922	2336.123535
1197.507813	2254.200195
1196.343750	2255.854736
1195.181641	2265.658447
1194.017578	2281.570068
1192.853516	2336.175049
1191.691406	2268.575684
1190.527344	2213.215820
1189.363281	2243.375488
1188.197266	2240.958496
1187.033203	2289.418457
1185.869141	2242.230957
1184.703125	2199.128418
1183.539063	2229.264404
1182.373047	2318.365967
1181.207031	2236.639160
1180.041016	2236.258789
1178.875000	2252.139160
1177.708984	2245.659180
1176.542969	2259.500732
1175.376953	2267.242676
1174.208984	2220.138428
1173.042969	2300.996094
1171.875000	2231.566162
1170.708984	2241.337402
1169.541016	2273.433594
1168.373047	2228.397705
1167.205078	2201.639160
1166.037109	2187.062744
1164.869141	2233.345459
1163.699219	2145.755859
1162.531250	2117.001709
1161.361328	2234.232422
1160.193359	2282.502197
1159.023438	2353.049805
1157.853516	2192.563721
1156.683594	2236.763672
1155.513672	2226.254150
1154.343750	2221.824463
1153.173828	2124.245117
1152.003906	2225.117188
1150.832031	2244.981445
1149.662109	2206.143555
1148.490234	2193.625977
1147.318359	2217.531982
1146.146484	2219.177246
1144.974609	2204.640869
1143.802734	2131.463867
1142.630859	2181.648926
1141.458984	2308.636230
1140.287109	2140.480957
1139.113281	2192.659424
1137.941406	2214.511719
1136.767578	2149.488281
1135.593750	2096.605713
1134.419922	2177.028809
1133.246094	2136.274658
1132.072266	2081.402588
1130.898438	2161.786865
1129.724609	2153.345947
1128.550781	2237.726074
1127.375000	2168.751465
1126.201172	2168.381836
1125.025391	2222.464600
1123.849609	2216.036621
1122.673828	2260.012451
1121.498047	2174.966797
1120.322266	2142.349854
1119.146484	2208.480713
1117.970703	2161.766357
1116.792969	2147.297363
1115.617188	2157.001221
1114.439453	2194.893066
1113.261719	2162.305664
1112.085938	2220.313232
1110.908203	2115.277832
1109.730469	2249.740479
1108.552734	2358.001953
1107.373047	2230.868652
1106.195313	2087.688721
1105.017578	2133.583740
1103.837891	2183.484131
1102.658203	2179.091309
1101.480469	2196.808350
1100.300781	2198.443359
1099.121094	2035.322754
1097.941406	2147.471680
1096.761719	2100.909424
1095.580078	2104.567383
1094.400391	2070.074951
1093.220703	2198.201172
1092.039063	2183.775879
1090.857422	2062.995117
1089.677734	2160.959717
1088.496094	2134.511230
1087.314453	2180.279785
1086.132813	2145.815186
1084.951172	2195.576416
1083.767578	2159.115967
1082.585938	2112.646240
1081.402344	2096.252930
1080.220703	2174.040283
1079.037109	2171.665771
1077.853516	2103.191650
1076.669922	2138.881104
1075.486328	2170.553711
1074.302734	2158.170898
1073.119141	2121.772217
1071.935547	2131.416504
1070.750000	2099.036865
1069.566406	2118.684814
1068.380859	2188.333496
1067.197266	2135.960693
1066.011719	2095.603516
1064.826172	2143.228271
1063.640625	2086.891846
1062.455078	2116.514404
1061.267578	2104.163330
1060.082031	2109.797607
1058.894531	2107.439453
1057.708984	2033.181885
1056.521484	2104.722656
1055.333984	2098.373291
1054.148438	2034.136108
1052.960938	2219.404053
1051.773438	2043.418579
1050.583984	2098.934570
1049.396484	2082.617188
1048.208984	2116.167725
1047.019531	2103.841064
1045.832031	2091.518555
1044.642578	2099.135010
1043.453125	2168.535889
1042.263672	1998.777344
1041.074219	2139.900146
1039.884766	2083.755127
1038.695313	2111.283691
1037.503906	2100.965576
1036.314453	2108.570557
1035.125000	2072.376465
1033.933594	2060.079590
1032.742188	1982.114502
1031.550781	2125.036377
1030.359375	2039.129028
1029.167969	2030.824097
1027.976563	2114.002686
1026.785156	1978.431641
1025.591797	2027.794067
1024.400391	2009.557983
1023.207031	2017.163696
1022.015625	2038.675781
1020.822266	2050.247070
1019.628906	2075.718506
1018.435547	2017.769653
1017.242188	2041.252197
1016.048828	2050.829590
1014.853516	1955.199829
1013.660156	2018.373535
1012.464844	1984.295166
1011.271484	2122.832520
1010.076172	2007.419434
1008.880859	1989.226318
1007.685547	1961.124756
1006.490234	2081.727539
1005.294922	2043.708252
1004.099609	1993.810425
1002.904297	1997.432373
1001.707031	1977.277954
1000.509766	2101.736328
999.314453	1982.542603
998.117188	2013.886841
996.919922	2035.320679
995.722656	1949.851685
994.525391	1973.268311
993.328125	2067.916016
992.130859	2039.862549
990.931641	1946.538208
989.734375	1944.227051
988.535156	1959.714111
987.335938	2042.419678
986.136719	2004.510010
984.939453	1992.307617
983.738281	1952.443237
982.539063	1979.770264
981.339844	1965.602661
980.140625	2026.495361
978.939453	1933.332397
977.740234	2002.107300
976.539063	1989.919556
975.337891	1993.526123
974.136719	2038.573853
972.935547	1921.810913
971.734375	1962.909790
970.533203	2075.002197
969.332031	2015.483643
968.128906	1995.420532
966.927734	1874.821777
965.724609	1933.632935
964.523438	2004.248291
963.320313	1944.792480
962.117188	1948.399292
960.914063	1942.156006
959.710938	2063.925537
958.505859	1986.778320
957.302734	1980.531494
956.097656	1944.761108
954.894531	2023.149292
953.689453	1951.964966
952.484375	2026.390259
951.281250	1980.800903
950.076172	1954.894165
948.869141	1907.366333
947.664063	1966.019775
946.458984	1947.991333
945.253906	1996.790771
944.046875	2020.028320
942.839844	1929.307007
941.634766	1934.868896
940.427734	1960.068970
939.220703	1977.405518
938.013672	1986.882935
936.806641	1951.208252
935.597656	1954.798706
934.390625	1972.124023
933.183594	1881.534668
931.974609	1977.332031
930.765625	1875.005005
929.556641	2008.028809
928.349609	1982.195923
927.140625	1948.530762
925.929688	1922.716797
924.720703	1940.023315
923.511719	1959.283081
922.300781	1853.163574
921.091797	1895.934814
919.880859	1889.734497
918.669922	1920.737061
917.460938	1896.916016
916.250000	1947.479126
915.039063	1868.867554
913.826172	1917.461426
912.615234	1930.825928
911.404297	1867.904785
910.191406	1996.652588
908.980469	1916.144409
907.767578	1886.491577
906.554688	1862.712524
905.341797	1874.118042
904.128906	1869.888184
902.916016	1965.291870
901.703125	1939.562256
900.488281	1898.218018
899.275391	1907.654663
898.060547	1948.323730
896.847656	1852.346191
895.632813	1906.671387
894.417969	1869.270508
893.203125	1826.029785
891.988281	1884.232422
890.773438	1899.510376
889.556641	1897.233887
888.341797	1840.370972
887.125000	1894.632568
885.910156	1861.175903
884.693359	1888.135498
883.476563	1918.982178
882.259766	1862.164063
881.042969	1729.411377
879.826172	1886.837280
878.609375	1911.822144
877.390625	1886.188477
876.173828	1790.500488
874.955078	1856.351807
873.738281	1836.577271
872.519531	1810.973877
871.300781	1923.464111
870.082031	1882.298340
868.863281	1881.974487
867.642578	1889.426147
866.423828	1881.327026
865.205078	1861.571533
863.984375	1874.851196
862.763672	1870.643555
861.544922	1812.056274
860.324219	1885.534668
859.103516	1873.561157
857.882813	1896.532837
856.660156	1902.029053
855.439453	1845.426880
854.218750	1889.733276
852.996094	1854.490845
851.773438	1900.719971
850.552734	1863.548462
849.330078	1818.634277
848.107422	1855.152832
846.884766	1763.739258
845.662109	1842.887085
844.437500	1943.320190
843.214844	1863.561401
841.990234	1845.808960
840.767578	1828.062622
839.542969	1785.151978
838.318359	1827.433105
837.093750	1858.086426
835.869141	1888.729248
834.644531	1820.684570
833.419922	1855.192017
832.195313	1833.596558
830.968750	1792.670044
829.742188	1786.560791
828.517578	1838.448730
827.291016	1851.661865
826.064453	1853.275391
824.837891	1856.820435
823.611328	1831.386475
822.384766	1881.290161
821.156250	1855.860718
819.929688	1948.221436
818.701172	1752.904053
817.474609	1872.272949
816.246094	1918.266602
815.017578	1815.671753
813.789063	1852.013306
812.560547	1919.203735
811.332031	1847.517822
810.101563	1847.199341
808.873047	1862.303711
807.642578	1759.824219
806.414063	1900.205322
805.183594	1872.901733
803.953125	1847.534058
802.722656	1851.067871
801.492188	1819.934937
800.261719	1852.354980
799.031250	1863.586670
797.798828	1872.889648
796.568359	1836.000488
795.335938	1826.062866
794.103516	1837.291138
792.873047	1852.362427
791.640625	1769.345215
790.408203	1838.263306
789.173828	1859.094116
787.941406	1820.329224
786.708984	1771.968262
785.474609	1842.759644
784.242188	1784.805298
783.007813	1893.987549
781.773438	1887.899048
780.539063	1829.966675
779.304688	1893.007080
778.070313	1775.587646
776.835938	1873.161499
775.599609	1809.514771
774.365234	1847.573608
773.128906	1853.009399
771.894531	1829.674805
770.658203	1827.441284
769.421875	1834.794800
768.185547	1847.896362
766.949219	1883.992188
765.710938	1849.174561
764.474609	1812.452881
763.238281	1825.548950
762.000000	1840.555664
760.761719	1853.642334
759.525391	1899.272339
758.287109	1837.687988
757.048828	1860.337769
755.810547	1838.966797
754.570313	1855.868530
753.332031	1907.197266
752.093750	1891.566895
750.853516	1868.292847
749.613281	1829.731201
748.375000	1850.442749
747.134766	1846.300537
745.894531	1851.714355
744.654297	1878.143066
743.412109	1873.997925
742.171875	1785.815796
740.931641	1871.440674
739.689453	1895.938110
738.447266	1916.609131
737.207031	1849.475342
735.964844	1849.155640
734.722656	1814.492310
733.480469	1877.131226
732.238281	1808.143066
730.994141	1828.807373
729.751953	1881.877808
728.507813	1885.364990
727.265625	1907.911133
726.021484	1898.052856
724.777344	1836.753540
723.533203	1826.910767
722.289063	1836.118286
721.044922	1847.226929
719.800781	1858.331543
718.554688	1863.721191
717.310547	1813.911255
716.064453	1870.688721
714.818359	1897.003052
713.572266	1911.893921
712.326172	1753.692749
711.080078	1797.129028
709.833984	1825.338989
708.587891	1821.220947
707.339844	1826.608032
706.093750	1780.682129
704.845703	1862.077393
703.599609	1850.356689
702.351563	1867.131226
701.103516	1828.826172
699.855469	1788.635620
698.607422	1869.958740
697.357422	1778.525879
696.109375	1783.911377
694.859375	1776.012817
693.611328	1813.647705
692.361328	1826.611206
691.111328	1754.229370
689.861328	1848.732422
688.611328	1840.829102
687.361328	1776.063965
686.111328	1817.449707
684.859375	1881.558960
683.609375	1782.719360
682.357422	1827.870605
681.105469	1816.191040
679.855469	1821.556885
678.603516	1783.377808
677.351563	1792.533081
676.097656	1794.115112
674.845703	1786.235474
673.593750	1780.250366
672.339844	1755.351929
671.087891	1768.286255
669.833984	1756.634521
668.580078	1727.971680
667.326172	1729.562500
666.072266	1748.161865
664.818359	1713.846436
663.562500	1806.122681
662.308594	1762.364380
661.054688	1724.286987
659.798828	1676.781494
658.542969	1759.560181
657.287109	1746.041870
656.031250	1685.345947
654.775391	1798.271240
653.519531	1724.380859
652.263672	1661.833862
651.005859	1791.678101
649.750000	1708.398804
648.492188	1787.286133
647.236328	1728.541260
645.978516	1686.778809
644.720703	1727.941772
643.462891	1682.425659
642.205078	1765.016113
640.945313	1695.025635
639.687500	1715.444946
638.427734	1585.240479
637.169922	1680.966919
635.910156	1725.844604
634.650391	1654.039551
633.390625	1717.720215
632.130859	1711.778931
630.871094	1713.362549
629.611328	1684.858887
628.349609	1731.568970
627.089844	1753.825684
625.828125	1700.896851
624.566406	1711.876343
623.304688	1698.427612
622.042969	1671.834351
620.781250	1662.153442
619.519531	1639.331055
618.257813	1747.940796
616.994141	1676.305176
615.732422	1668.506714
614.468750	1671.970093
613.205078	1699.822510
611.943359	1635.748169
610.679688	1770.502441
609.416016	1644.556152
608.150391	1706.141602
606.886719	1707.719849
605.623047	1611.837524
604.357422	1622.800903
603.091797	1719.945068
601.828125	1635.349976
600.562500	1642.557617
599.296875	1763.991333
598.031250	1634.497803
596.763672	1677.268677
595.498047	1676.977173
594.232422	1657.972778
592.964844	1678.265503
591.697266	1640.560791
590.431641	1688.904175
589.164063	1664.300659
587.896484	1645.314575
586.628906	1676.807617
585.359375	1687.730225
584.091797	1687.436890
582.822266	1670.328125
581.554688	1660.697510
580.285156	1636.128418
579.015625	1559.280396
577.746094	1596.350830
576.476563	1680.077148
575.207031	1690.983521
573.937500	1608.580933
572.667969	1585.911865
571.396484	1621.079712
570.126953	1635.718872
568.855469	1674.595215
567.583984	1605.318115
566.312500	1528.608521
565.041016	1614.078857
563.769531	1598.890015
562.498047	1555.758667
561.224609	1546.173706
559.953125	1594.330566
558.679688	1636.884033
557.406250	1569.571289
556.134766	1565.575073
554.861328	1662.087036
553.587891	1574.334839
552.312500	1652.205688
551.039063	1603.551147
549.765625	1469.356079
548.490234	1508.152344
547.216797	1519.045532
545.941406	1511.345215
544.666016	1568.700317
543.390625	1620.460327
542.115234	1553.290161
540.839844	1514.008423
539.562500	1565.750732
538.287109	1507.910156
537.009766	1593.056152
535.734375	1563.076538
534.457031	1551.667969
533.179688	1475.312378
531.902344	1569.681641
530.625000	1500.769897
529.347656	1493.089355
528.068359	1537.335938
526.791016	1538.922363
525.511719	1503.432007
524.234375	1482.781860
522.955078	1484.376709
521.675781	1511.910522
520.396484	1472.744385
519.117188	1498.418335
517.837891	1490.749756
516.556641	1444.201538
515.277344	1551.320435
513.996094	1565.857178
512.714844	1539.676270
511.435547	1526.456177
510.154297	1433.693726
508.873047	1483.383179
507.589844	1536.753784
506.308594	1447.735718
505.027344	1486.304688
503.744141	1521.163574
502.462891	1485.786499
501.179688	1481.832031
499.896484	1426.153198
498.613281	1455.456909
497.330078	1554.925171
496.046875	1530.651001
494.761719	1535.922241
493.478516	1476.590698
492.195313	1472.642334
490.910156	1496.371704
489.625000	1459.215210
488.339844	1479.249634
487.054688	1464.238525
485.769531	1515.609619
484.484375	1513.501709
483.197266	1456.099487
481.912109	1422.674316
480.625000	1475.859131
479.339844	1416.651245
478.052734	1488.237183
476.765625	1484.294312
475.478516	1502.447632
474.191406	1518.753662
472.904297	1415.415405
471.615234	1459.334839
470.328125	1510.598633
469.039063	1477.221558
467.750000	1408.909302
466.462891	1502.451660
465.173828	1489.318604
463.884766	1472.513550
462.593750	1442.848022
461.304688	1468.323853
460.015625	1449.693604
458.724609	1454.951660
457.433594	1559.391602
456.144531	1472.807617
454.853516	1494.583496
453.562500	1450.263794
452.271484	1415.136841
450.978516	1469.943604
449.687500	1477.026123
448.396484	1429.071167
447.103516	1436.158203
445.810547	1399.230225
444.519531	1417.321045
443.226563	1490.401855
441.933594	1471.812500
440.638672	1374.428955
439.345703	1441.982056
438.052734	1474.704834
436.757813	1457.962524
435.464844	1433.900879
434.169922	1429.988281
432.875000	1427.907715
431.580078	1385.560425
430.285156	1350.547974
428.990234	1383.246216
427.695313	1393.980591
426.398438	1496.163696
425.103516	1439.211426
423.806641	1404.219971
422.509766	1345.475464
421.212891	1411.039917
419.916016	1443.687256
418.619141	1392.275024
417.322266	1364.629272
416.025391	1393.614502
414.726563	1386.066040
413.429688	1400.430420
412.130859	1464.079102
410.832031	1451.046387
409.533203	1434.368530
408.234375	1381.204712
406.935547	1380.963013
405.636719	1417.200195
404.335938	1446.130127
403.037109	1362.005127
401.736328	1398.226440
400.435547	1416.208374
399.134766	1395.914673
397.833984	1433.932861
396.533203	1382.674072
395.232422	1435.252197
393.931641	1394.937500
392.628906	1431.108154
391.328125	1338.015747
390.025391	1365.083130
388.722656	1399.420166
387.419922	1410.091919
386.117188	1357.089478
384.814453	1375.040161
383.511719	1365.706787
382.207031	1363.649292
380.904297	1354.321045
379.599609	1397.705322
378.296875	1326.588013
376.992188	1391.764893
375.687500	1329.756470
374.382813	1411.256470
373.076172	1334.738403
371.771484	1421.655884
370.466797	1348.793457
369.160156	1285.031494
367.853516	1310.212036
366.548828	1353.527588
365.242188	1347.848145
363.935547	1382.073120
362.628906	1354.629395
361.320313	1354.391968
360.013672	1384.972046
358.705078	1372.041870
357.398438	1335.558228
356.089844	1288.216309
354.781250	1277.121338
353.472656	1369.268677
352.164063	1340.054443
350.855469	1350.682861
349.546875	1334.153809
348.236328	1342.969482
346.927734	1333.685913
345.617188	1322.596191
344.306641	1331.409058
342.996094	1340.218872
341.685547	1372.533936
340.375000	1263.811523
339.064453	1328.667358
337.753906	1294.093872
336.441406	1311.937500
335.130859	1284.605957
333.818359	1318.702881
332.505859	1322.083740
331.193359	1329.075073
329.880859	1298.148438
328.568359	1341.244751
327.253906	1333.789917
325.941406	1301.074097
324.626953	1320.692139
323.314453	1354.734619
322.000000	1305.799805
320.685547	1321.800049
319.371094	1310.750244
318.056641	1333.954468
316.742188	1362.557373
315.425781	1382.140259
314.111328	1262.985840
312.794922	1284.380615
311.478516	1341.788940
310.162109	1370.365112
308.845703	1289.105347
307.529297	1353.682861
306.212891	1324.648315
304.896484	1324.415649
303.578125	1306.191406
302.261719	1314.956177
300.943359	1339.904541
299.625000	1327.081665
298.306641	1330.444214
296.988281	1319.424927
295.669922	1288.639648
294.351563	1297.397949
293.033203	1345.679077
291.712891	1293.349243
290.392578	1298.510010
289.074219	1411.410034
287.753906	1321.393311
286.433594	1313.980835
285.113281	1362.207886
283.791016	1322.491089
282.470703	1297.140991
281.150391	1366.870850
279.828125	1303.858765
278.505859	1332.320190
277.185547	1296.228882
275.863281	1324.681519
274.541016	1392.552856
273.216797	1322.423706
271.894531	1295.317261
270.572266	1381.070557
269.248047	1287.697876
267.923828	1291.052612
266.601563	1303.357788
265.277344	1306.708496
263.953125	1283.212524
262.628906	1286.565552
261.302734	1257.714111
259.978516	1277.169067
258.654297	1276.944336
257.328125	1312.482056
256.001953	1256.829102
254.675781	1249.457886
253.349609	1295.704590
252.023438	1249.018066
250.697266	1196.988281
249.371094	1252.150879
248.042969	1312.651733
246.716797	1235.639526
245.388672	1231.851440
244.060547	1170.945313
242.732422	1201.078369
241.404297	1229.416504
240.076172	1200.655518
238.748047	1202.227783
237.417969	1218.066650
236.089844	1242.815430
234.759766	1224.768799
233.429688	1181.773926
232.101563	1213.644409
230.771484	1208.085205
229.439453	1161.552734
228.109375	1143.536011
226.779297	1137.991821
225.447266	1152.036011
224.117188	1134.030396
222.785156	1117.810913
221.453125	1103.376831
220.121094	1117.416992
218.789063	1117.220093
217.457031	1072.555664
216.125000	1131.053345
214.791016	1091.736450
213.458984	1148.432251
212.125000	1141.119995
210.791016	1066.279297
209.457031	1083.859497
208.123047	1117.421997
206.789063	1055.058228
205.455078	1028.234009
204.119141	1033.379395
202.785156	1127.285645
201.449219	1050.764404
200.113281	1039.931274
198.777344	1089.428711
197.441406	1101.654541
196.105469	1050.023315
194.769531	1049.838013
193.433594	1074.475708
192.095703	1081.377197
190.757813	1088.276123
189.421875	1038.464722
188.083984	1057.771362
186.746094	1078.842651
185.408203	1078.652344
184.070313	1080.232910
182.730469	1034.007690
181.392578	1046.216919
180.052734	1000.013916
178.712891	1017.533630
177.375000	1022.661926
176.035156	1013.636414
174.695313	1082.436279
173.353516	1061.024658
172.013672	1021.940002
170.673828	1023.527283
169.332031	1044.555786
167.990234	956.015076
166.650391	1030.052490
165.308594	1019.271545
163.966797	1004.962036
162.625000	1064.824341
161.281250	1062.870728
159.939453	956.767761
158.595703	1011.311951
157.253906	1042.896606
155.910156	995.075806
154.566406	1037.236206
153.222656	1035.289185
151.878906	971.624512
150.535156	989.083557
149.189453	1001.248108
147.845703	988.734009
146.500000	923.360168
145.154297	974.289978
143.810547	930.079895
142.464844	875.318176
141.117188	943.838257
139.771484	911.980957
138.425781	929.422424
137.078125	892.299011
135.732422	951.969299
134.384766	851.518799
133.037109	883.030701
131.689453	852.976379
130.341797	852.825562
128.994141	893.110901
127.646484	852.523987
126.296875	873.462830
124.949219	940.080383
123.599609	845.044312
122.250000	834.355591
120.900391	886.894836
119.550781	862.155090
118.201172	846.202087
116.851563	812.701782
115.500000	884.512390
114.150391	849.262390
112.798828	759.639526
111.447266	826.159119
110.095703	766.385681
108.744141	668.057800
107.392578	683.717712
106.041016	604.720154
104.689453	534.513000
103.335938	478.348267
