#Wave		#Intensity
3204.356445	6262.084961
3203.525391	6381.742676
3202.693359	6192.710449
3201.861328	6260.065430
3201.028320	6102.437012
3200.196289	6175.479004
3199.363281	6194.410156
3198.531250	6227.565918
3197.698242	6101.347656
3196.865234	6117.435547
3196.032227	6136.363281
3195.199219	6163.817383
3194.365234	6285.113281
3193.532227	6295.473633
3192.698242	6243.283691
3191.864258	6276.387695
3191.031250	6127.585938
3190.197266	6183.430664
3189.362305	6230.733398
3188.528320	6135.984375
3187.694336	6268.487793
3186.859375	6173.762695
3186.024414	6189.803223
3185.189453	6095.121094
3184.354492	6253.090820
3183.519531	6200.998535
3182.684570	6182.973633
3181.849609	6065.656250
3181.013672	6180.979004
3180.177734	6355.823730
3179.341797	6244.206543
3178.506836	6109.942871
3177.669922	5998.400879
3176.833984	6348.889648
3175.998047	6183.500977
3175.161133	6202.337402
3174.325195	6170.174805
3173.488281	6163.514160
3172.651367	6253.145508
3171.814453	6153.031250
3170.977539	6344.555176
3170.139648	6377.500000
3169.302734	6234.960449
3168.464844	6112.275391
3167.626953	6221.631836
3166.789063	6107.474609
3165.951172	6131.944824
3165.113281	6337.394531
3164.275391	6333.544434
3163.436523	6137.458496
3162.598633	6263.663574
3161.759766	6217.435547
3160.920898	6205.129883
3160.082031	6133.498535
3159.243164	6163.581543
3158.404297	6052.439941
3157.564453	6184.183105
3156.725586	6219.889160
3155.885742	6156.781738
3155.045898	6152.965820
3154.206055	6208.413086
3153.366211	6148.159180
3152.526367	5994.827637
3151.685547	6301.310547
3150.845703	6131.082520
3150.004883	6240.062500
3149.164063	6210.863281
3148.323242	6288.788086
3147.482422	6152.491699
3146.641602	6199.403320
3145.800781	6201.220215
3144.958984	6084.722656
3144.118164	6052.758789
3143.276367	6150.345215
3142.434570	6157.799805
3141.592773	6190.588379
3140.750977	5998.187500
3139.908203	6188.590332
3139.066406	6274.820313
3138.223633	6102.191895
3137.380859	6165.904297
3136.538086	6077.723145
3135.695313	6335.446777
3134.852539	6095.442383
3134.009766	6204.091309
3133.166016	6169.362305
3132.323242	6106.542480
3131.479492	6341.574707
3130.635742	6214.133789
3129.791992	6008.085938
3128.948242	6307.612793
3128.104492	6242.012207
3127.259766	6311.191895
3126.416016	6096.839844
3125.571289	6081.822754
3124.726563	6381.095215
3123.881836	6211.725586
3123.037109	6264.021973
3122.192383	6383.615234
3121.346680	6276.021484
3120.501953	6342.300781
3119.656250	6273.995605
3118.810547	6312.223633
3117.964844	6314.007324
3117.119141	6248.541504
3116.273438	6211.112305
3115.427734	6140.081055
3114.581055	6200.705078
3113.734375	6331.314453
3112.888672	6209.902344
3112.041992	6410.451172
3111.194336	6356.237305
3110.347656	6136.934570
3109.500977	6289.832031
3108.653320	6300.006836
3107.806641	6195.498047
3106.958984	6409.837402
3106.111328	6305.344238
3105.263672	6544.757324
3104.416016	6306.104004
3103.567383	6165.345215
3102.719727	6239.797363
3101.871094	6294.667969
3101.022461	6243.369629
3100.174805	6231.189453
3099.325195	6149.199219
3098.476563	6109.117188
3097.627930	6320.295898
3096.778320	6079.232422
3095.929688	6262.440430
3095.080078	6308.864258
3094.230469	6235.309570
3093.380859	6273.354004
3092.531250	6364.376465
3091.681641	6419.118652
3090.831055	6275.891602
3089.981445	6280.453125
3089.130859	6240.418945
3088.280273	6320.225586
3087.429688	6536.531738
3086.579102	6206.752441
3085.728516	6389.583008
3084.876953	6243.736328
3084.025391	6420.932617
3083.174805	6213.879883
3082.323242	6299.166504
3081.471680	6261.968750
3080.620117	6383.394043
3079.767578	6335.065430
3078.916016	6450.875977
3078.063477	6246.798828
3077.211914	6368.147461
3076.359375	6333.754395
3075.506836	6416.129883
3074.654297	6403.975586
3073.800781	6341.801758
3072.948242	6276.869629
3072.095703	6348.087891
3071.242188	6291.508301
3070.388672	6229.392090
3069.535156	6122.867188
3068.681641	6349.539551
3067.828125	6315.203125
3066.973633	6247.571777
3066.120117	6327.038086
3065.265625	6420.351563
3064.411133	6408.217773
3063.556641	6457.108398
3062.702148	6184.289551
3061.847656	6330.247559
3060.992188	6323.680176
3060.137695	6353.149414
3059.282227	6288.379883
3058.426758	6456.394043
3057.571289	6463.662598
3056.715820	6426.606934
3055.860352	6389.563477
3055.004883	6399.607910
3054.148438	6417.955078
3053.291992	6303.417969
3052.436523	6305.167480
3051.580078	6414.844727
3050.723633	6297.596191
3049.866211	6213.583008
3049.009766	6320.455566
3048.153320	6366.449707
3047.295898	6260.344727
3046.438477	6444.569336
3045.581055	6473.935059
3044.723633	6365.099609
3043.866211	6195.504883
3043.007813	6434.878906
3042.150391	6287.427246
3041.291992	6347.176270
3040.433594	6296.441895
3039.576172	6259.529297
3038.716797	6261.278320
3037.858398	6329.272949
3037.000000	6237.176270
3036.140625	6360.339844
3035.282227	6188.258789
3034.422852	6405.178223
3033.563477	6365.530762
3032.704102	6295.562012
3031.844727	6473.758789
3030.984375	6447.901855
3030.125000	6344.878906
3029.264648	6426.527344
3028.404297	6464.063477
3027.543945	6631.068359
3026.683594	6478.500977
3025.823242	6339.752930
3024.962891	6487.420898
3024.101563	6351.469238
3023.241211	6380.721680
3022.379883	6338.406738
3021.518555	6373.155762
3020.657227	6270.325195
3019.795898	6354.589844
3018.933594	6150.028320
3018.072266	6388.285645
3017.209961	6403.750488
3016.347656	6353.230957
3015.485352	6467.648438
3014.623047	6496.833496
3013.760742	6330.915527
3012.898438	6404.070313
3012.035156	6317.880859
3011.172852	6391.014160
3010.309570	6302.108398
3009.446289	6463.078125
3008.583008	6536.151367
3007.719727	6417.073242
3006.855469	6503.851563
3005.992188	6464.386719
3005.127930	6452.368164
3004.263672	6593.956055
3003.400391	6343.325684
3002.535156	6449.238770
3001.670898	6549.634277
3000.806641	6268.979492
2999.941406	6374.852539
2999.077148	6280.653320
2998.211914	6452.245605
2997.346680	6522.425293
2996.481445	6367.991211
2995.616211	6473.762207
2994.750000	6368.669922
2993.884766	6447.029785
2993.018555	6344.712891
2992.152344	6458.628418
2991.287109	6490.418945
2990.419922	6412.766602
2989.553711	6586.793457
2988.687500	6539.234375
2987.820313	6505.362793
2986.954102	6405.884766
2986.086914	6464.987793
2985.219727	6494.007324
2984.352539	6443.767578
2983.485352	6442.725586
2982.617188	6559.152344
2981.750000	6284.951660
2980.881836	6384.980469
2980.013672	6580.544922
2979.145508	6503.038086
2978.277344	6340.937988
2977.409180	6427.246582
2976.541016	6669.065430
2975.671875	6517.929688
2974.803711	6462.317871
2973.934570	6488.546875
2973.065430	6312.970215
2972.196289	6336.487793
2971.326172	6477.219727
2970.457031	6244.490723
2969.587891	6548.705078
2968.717773	6381.434082
2967.847656	6513.894043
2966.977539	6412.056152
2966.107422	6560.809082
2965.237305	6374.582031
2964.366211	6496.066895
2963.496094	6530.403320
2962.625000	6368.766602
2961.753906	6362.293945
2960.882813	6363.984863
2960.011719	6254.140137
2959.140625	6122.571777
2958.269531	6404.408203
2957.397461	6574.672363
2956.525391	6307.184082
2955.654297	6276.263672
2954.782227	6432.876465
2953.909180	6407.379883
2953.037109	6705.196777
2952.165039	6375.425781
2951.291992	6434.145508
2950.418945	6376.077637
2949.546875	6470.074219
2948.673828	6390.302246
2947.799805	6438.124023
2946.926758	6456.078125
2946.053711	6395.339844
2945.179688	6440.424316
2944.306641	6349.870605
2943.432617	6365.114746
2942.558594	6529.491211
2941.683594	6493.189453
2940.809570	6502.981445
2939.935547	6407.069336
2939.060547	6395.192871
2938.185547	6407.704590
2937.311523	6322.689941
2936.436523	6381.253906
2935.560547	6331.475586
2934.685547	6544.353516
2933.810547	6424.177734
2932.934570	6431.257813
2932.058594	6657.547852
2931.182617	6339.881836
2930.306641	6468.716797
2929.430664	6456.849121
2928.554688	6407.121582
2927.677734	6565.627930
2926.801758	6464.528320
2925.924805	6398.604004
2925.047852	6427.298828
2924.170898	6442.472656
2923.293945	6538.699219
2922.416016	6353.937988
2921.539063	6347.507324
2920.661133	6662.453125
2919.784180	6464.260254
2918.906250	6349.823730
2918.028320	6351.495117
2917.149414	6393.648438
2916.271484	6462.772949
2915.392578	6521.082520
2914.514648	6344.684082
2913.635742	6362.536621
2912.756836	6458.587402
2911.877930	6414.401367
2910.999023	6645.203613
2910.119141	6485.099609
2909.240234	6449.014648
2908.360352	6593.474121
2907.480469	6546.606934
2906.600586	6308.506348
2905.720703	6444.837891
2904.840820	6599.974609
2903.960938	6434.673340
2903.080078	6635.523438
2902.199219	6680.203613
2901.319336	6552.643066
2900.438477	6452.030273
2899.556641	6372.970703
2898.675781	6619.392090
2897.794922	6537.641602
2896.913086	6445.161621
2896.031250	6538.211914
2895.150391	6590.912109
2894.268555	6460.842773
2893.385742	6502.790039
2892.503906	6528.603027
2891.622070	6374.430176
2890.739258	6617.805176
2889.856445	6495.891602
2888.973633	6486.784180
2888.090820	6577.006348
2887.208008	6543.731934
2886.325195	6751.994141
2885.441406	6608.691406
2884.558594	6492.262207
2883.674805	6359.776367
2882.791016	6535.750488
2881.907227	6505.195313
2881.023438	6640.873047
2880.138672	6543.296387
2879.254883	6641.401367
2878.370117	6581.371582
2877.485352	6540.115723
2876.601563	6474.763672
2875.715820	6508.533691
2874.831055	6507.479004
2873.946289	6452.873535
2873.060547	6617.808594
2872.175781	6592.645996
2871.290039	6546.081543
2870.404297	6619.943359
2869.518555	6717.858887
2868.631836	6609.772949
2867.746094	6405.438965
2866.859375	6647.741699
2865.973633	6732.220215
2865.086914	6509.253418
2864.200195	6612.436523
2863.313477	6402.921875
2862.425781	6612.964844
2861.539063	6793.552734
2860.651367	6669.583984
2859.764648	6580.372559
2858.876953	6581.976074
2857.989258	6612.946289
2857.101563	6619.882324
2856.212891	6338.577148
2855.325195	6636.415039
2854.436523	6525.950684
2853.547852	6684.947266
2852.659180	6638.522461
2851.770508	6640.112793
2850.881836	6471.060547
2849.993164	6715.269531
2849.103516	6711.515137
2848.214844	6689.106934
2847.325195	6767.958984
2846.435547	6463.152344
2845.545898	6597.952148
2844.656250	6724.718750
2843.765625	6619.778320
2842.875977	6735.850098
2841.985352	6633.603516
2841.094727	6613.896973
2840.204102	6556.941406
2839.313477	6590.466797
2838.422852	6714.429199
2837.531250	6577.690430
2836.640625	6815.966797
2835.749023	6437.291992
2834.857422	6635.636230
2833.965820	6623.927734
2833.074219	6575.016113
2832.182617	6595.207031
2831.290039	6652.586914
2830.398438	6614.318848
2829.505859	6544.192383
2828.613281	6699.804688
2827.720703	6603.135742
2826.828125	6647.193359
2825.934570	6651.423828
2825.041992	6591.961914
2824.148438	6704.986328
2823.254883	6603.087891
2822.361328	6700.158691
2821.467773	6598.293945
2820.574219	6602.526855
2819.680664	6585.548340
2818.786133	6637.495117
2817.891602	6466.797852
2816.998047	6648.591309
2816.103516	6674.007324
2815.208008	6598.751465
2814.313477	6595.032227
2813.418945	6599.258789
2812.523438	6727.927734
2811.627930	6758.604004
2810.732422	6746.919922
2809.836914	6637.320313
2808.941406	6546.278320
2808.045898	6778.028809
2807.149414	6623.509277
2806.253906	6595.986816
2805.357422	6618.715332
2804.460938	6794.781738
2803.564453	6611.280762
2802.667969	6530.916992
2801.770508	6632.918457
2800.874023	6682.043457
2799.976563	6680.958984
2799.079102	6706.287598
2798.182617	6707.840332
2797.284180	6500.796387
2796.386719	6536.701660
2795.489258	6678.178711
2794.590820	6447.487305
2793.692383	6501.854492
2792.794922	6619.522949
2791.896484	6557.777344
2790.997070	6643.749023
2790.098633	6592.566895
2789.200195	6625.772949
2788.300781	6548.248047
2787.401367	6781.766602
2786.501953	6583.017090
2785.602539	6571.408691
2784.703125	6486.039063
2783.803711	6519.228516
2782.903320	6678.820313
2782.003906	6543.443848
2781.103516	6526.584961
2780.203125	6586.068848
2779.302734	6503.411133
2778.401367	6728.661133
2777.500977	6638.113281
2776.600586	6681.756348
2775.699219	6596.505371
2774.797852	6679.586426
2773.896484	6610.139160
2772.995117	6496.022949
2772.093750	6552.794922
2771.191406	6643.712402
2770.289063	6674.165039
2769.387695	6765.033203
2768.485352	6635.223145
2767.583008	6550.102539
2766.680664	6619.938477
2765.777344	6610.986816
2764.875000	6541.661621
2763.971680	6671.831055
2763.068359	6683.868652
2762.165039	6703.773438
2761.261719	6589.880371
2760.358398	6575.695313
2759.455078	6621.832520
2758.550781	6762.349121
2757.646484	6559.383301
2756.742188	6618.606445
2755.837891	6706.638672
2754.933594	6592.873047
2754.029297	6641.581055
2753.124023	6606.448242
2752.219727	6707.520020
2751.314453	6677.625000
2750.409180	6427.806641
2749.503906	6620.481445
2748.598633	6470.214355
2747.693359	6681.138184
2746.787109	6748.083008
2745.880859	6582.170898
2744.975586	6536.634277
2744.069336	6538.187500
2743.163086	6662.638184
2742.255859	6588.351563
2741.349609	6608.193359
2740.442383	6515.644531
2739.536133	6736.703613
2738.628906	6680.741699
2737.721680	6397.527344
2736.813477	6623.721191
2735.906250	6533.855469
2734.999023	6637.234863
2734.090820	6698.811035
2733.182617	6645.518555
2732.274414	6613.121582
2731.366211	6695.545410
2730.458008	6647.497070
2729.549805	6774.232422
2728.640625	6554.054199
2727.731445	6675.548340
2726.823242	6630.140625
2725.914063	6608.208496
2725.004883	6607.134766
2724.094727	6702.480469
2723.185547	6677.941406
2722.275391	6799.295410
2721.365234	6566.374512
2720.456055	6687.706543
2719.545898	6728.280762
2718.634766	6625.654297
2717.724609	6632.386230
2716.813477	6641.718262
2715.903320	6690.079102
2714.992188	6662.974609
2714.081055	6513.618164
2713.169922	6751.838379
2712.258789	6815.751465
2711.346680	6697.642578
2710.435547	6764.143555
2709.523438	6627.886719
2708.611328	6598.222656
2707.699219	6584.158203
2706.787109	6658.426758
2705.875000	6698.903809
2704.961914	6671.844238
2704.049805	6699.322266
2703.136719	6664.481934
2702.223633	6723.101563
2701.310547	6602.621094
2700.397461	6785.789063
2699.483398	6649.770020
2698.570313	6705.758789
2697.656250	6756.541992
2696.742188	6675.052246
2695.828125	6686.930664
2694.914063	6709.174805
2694.000000	6591.443848
2693.084961	6730.316895
2692.170898	6718.857422
2691.255859	6551.958008
2690.340820	6597.517578
2689.425781	6593.854492
2688.510742	6704.129395
2687.594727	6835.080078
2686.679688	6857.265625
2685.763672	6646.505859
2684.847656	6697.180176
2683.931641	6688.328613
2683.015625	6726.044922
2682.099609	6836.170898
2681.182617	6778.164551
2680.266602	6849.460938
2679.349609	6706.157227
2678.432617	6596.502930
2677.515625	6683.299805
2676.598633	6744.228516
2675.681641	6657.873047
2674.763672	6638.708008
2673.846680	6769.347168
2672.928711	6786.321777
2672.010742	6751.652832
2671.092773	6693.761719
2670.173828	6855.278809
2669.255859	6905.775879
2668.336914	6796.283203
2667.418945	6839.033691
2666.500000	6788.912598
2665.581055	6720.754883
2664.662109	6742.868164
2663.742188	6630.911621
2662.823242	6779.338867
2661.903320	6631.330566
2660.983398	6676.634766
2660.063477	6879.086914
2659.143555	6888.270996
2658.223633	6668.224121
2657.303711	6690.315430
2656.382813	6689.226074
2655.461914	6770.516113
2654.541016	6761.692383
2653.620117	6703.974609
2652.699219	6602.533203
2651.778320	6609.176270
2650.856445	6682.695313
2649.935547	6820.486328
2649.013672	6929.946289
2648.091797	6761.703613
2647.169922	6619.221680
2646.248047	6764.642578
2645.325195	6760.971191
2644.403320	6621.127441
2643.480469	6712.529785
2642.557617	6880.956543
2641.634766	6818.202637
2640.711914	6740.062988
2639.789063	6726.129395
2638.865234	6753.269043
2637.941406	6762.434570
2637.018555	6776.729492
2636.094727	6560.119141
2635.170898	6913.039551
2634.246094	6804.195801
2633.322266	6964.638672
2632.397461	6799.415527
2631.473633	6752.166016
2630.548828	6635.729004
2629.624023	6696.151367
2628.699219	6730.931641
2627.773438	6875.857910
2626.848633	6646.775391
2625.922852	6807.033203
2624.997070	6828.969238
2624.071289	6799.695313
2623.145508	6801.147461
2622.219727	6672.074707
2621.293945	6630.045898
2620.367188	6754.330566
2619.440430	6732.765625
2618.513672	6826.300781
2617.586914	6740.800781
2616.660156	6634.874512
2615.733398	6667.026367
2614.805664	6637.824219
2613.878906	6726.187012
2612.951172	6788.969238
2612.023438	6772.534668
2611.095703	6633.499512
2610.166992	6867.375000
2609.239258	6669.639648
2608.310547	6747.697266
2607.382813	6772.124023
2606.454102	6561.738770
2605.525391	6695.915039
2604.596680	6835.149414
2603.666992	6803.423828
2602.738281	6815.067871
2601.808594	6785.905762
2600.878906	6927.583984
2599.949219	6651.130371
2599.019531	6721.415039
2598.089844	6702.480469
2597.159180	6777.829590
2596.229492	6565.270508
2595.298828	6803.639648
2594.368164	6530.021973
2593.437500	6763.226074
2592.506836	6726.479492
2591.575195	6687.199707
2590.644531	6864.270020
2589.712891	6812.256348
2588.781250	6727.183105
2587.849609	6657.400879
2586.917969	6681.750488
2585.986328	6927.339844
2585.053711	6616.005371
2584.122070	6716.616699
2583.189453	6812.111328
2582.256836	6676.305176
2581.324219	6756.528809
2580.391602	6618.235352
2579.458008	6647.638184
2578.525391	6768.462891
2577.591797	6769.898438
2576.658203	6822.112305
2575.724609	6673.765625
2574.791016	6847.806152
2573.857422	6823.850586
2572.922852	6812.588379
2571.989258	6669.413086
2571.054688	6767.247070
2570.120117	6913.233398
2569.185547	6856.321777
2568.250000	6634.640625
2567.315430	6734.950195
2566.379883	6809.883301
2565.445313	6867.053711
2564.509766	6769.658203
2563.574219	6753.355469
2562.638672	6721.860840
2561.702148	6758.749023
2560.766602	6833.603516
2559.830078	6847.677734
2558.893555	6851.623047
2557.957031	6584.785645
2557.020508	6899.992188
2556.083984	6709.128906
2555.146484	6925.564941
2554.209961	6658.888672
2553.272461	6746.303223
2552.334961	6654.187500
2551.397461	6673.324219
2550.459961	6836.513672
2549.521484	6749.481934
2548.583984	6773.645996
2547.645508	6989.787109
2546.707031	6821.949707
2545.768555	6815.785645
2544.830078	6595.008301
2543.891602	6747.924805
2542.952148	6767.016113
2542.012695	6672.536621
2541.074219	6759.761230
2540.134766	6809.114258
2539.194336	6669.270020
2538.254883	6733.753906
2537.315430	6740.219238
2536.375000	6671.047363
2535.434570	6644.750488
2534.494141	6731.878418
2533.553711	6806.378418
2532.613281	6785.110840
2531.672852	6872.172363
2530.731445	6805.563965
2529.791016	6799.416504
2528.849609	6813.414063
2527.908203	6726.707031
2526.966797	6725.608887
2526.024414	6872.993652
2525.083008	6620.247070
2524.140625	6817.916992
2523.198242	6733.794922
2522.255859	6735.210449
2521.313477	6827.150879
2520.371094	6843.635254
2519.428711	6731.911621
2518.485352	6730.812012
2517.541992	6734.738770
2516.598633	6741.176758
2515.655273	6800.367188
2514.711914	6698.787598
2513.768555	6906.133301
2512.824219	6837.210938
2511.879883	6682.953613
2510.936523	6834.977539
2509.992188	6871.506348
2509.046875	6908.022949
2508.102539	6904.385742
2507.158203	6790.377930
2506.212891	6851.969727
2505.267578	6670.300781
2504.322266	6766.993164
2503.376953	6768.394531
2502.431641	6847.493652
2501.485352	6813.797363
2500.540039	6842.750977
2499.593750	6768.982910
2498.647461	6848.029785
2497.701172	6749.240723
2496.754883	6945.950195
2495.807617	6749.539063
2494.861328	6788.486328
2493.914063	6777.366211
2492.966797	6673.664063
2492.019531	6805.174805
2491.072266	6741.525391
2490.125000	6727.918457
2489.176758	6829.346680
2488.229492	6835.731445
2487.281250	6894.610840
2486.333008	6905.981445
2485.384766	6709.927734
2484.436523	6841.258301
2483.487305	6802.666992
2482.538086	6844.018066
2481.589844	6752.992676
2480.640625	6669.487793
2479.691406	6898.084473
2478.742188	6764.659180
2477.791992	6718.629395
2476.842773	6759.952637
2475.892578	6848.666016
2474.942383	6924.877441
2473.992188	6771.602539
2473.041992	6835.333008
2472.090820	6776.868652
2471.140625	6778.253906
2470.189453	6787.115723
2469.238281	6788.498047
2468.287109	6869.614258
2467.335938	6684.135742
2466.384766	6777.696289
2465.433594	6547.464355
2464.481445	6845.202148
2463.529297	6746.985840
2462.577148	6840.474609
2461.625000	6941.398438
2460.672852	6875.563965
2459.719727	6909.271973
2458.767578	6987.746582
2457.814453	6812.498047
2456.861328	6821.331055
2455.908203	6753.082520
2454.955078	6657.510254
2454.000977	6842.840820
2453.047852	6831.780762
2452.093750	6977.265625
2451.139648	6759.983887
2450.185547	6741.490234
2449.231445	6618.692871
2448.277344	6736.801758
2447.322266	6882.182129
2446.368164	6890.985352
2445.413086	6825.328125
2444.458008	6980.547852
2443.502930	6721.368652
2442.546875	6879.035156
2441.591797	7026.728516
2440.635742	6899.103516
2439.680664	6803.753906
2438.724609	6849.743652
2437.768555	6940.333984
2436.811523	6708.718262
2435.855469	6759.655762
2434.898438	6988.955078
2433.942383	6883.774414
2432.985352	6778.627930
2432.028320	6834.472656
2431.070313	6766.506348
2430.113281	6782.727051
2429.156250	6754.391602
2428.198242	6654.300293
2427.240234	6762.077637
2426.282227	6854.976563
2425.324219	6752.444336
2424.365234	6771.123047
2423.407227	6789.795898
2422.448242	6892.517090
2421.489258	6785.101074
2420.530273	6845.775391
2419.571289	6755.699219
2418.612305	6801.534668
2417.652344	6726.315430
2416.693359	6799.307617
2415.733398	6733.990723
2414.773438	6898.309570
2413.813477	6778.688965
2412.853516	6631.957520
2411.892578	6803.614746
2410.932617	6856.782715
2409.971680	6850.726074
2409.010742	6854.537109
2408.049805	6759.701660
2407.087891	6872.018555
2406.126953	6846.239746
2405.166016	6835.259277
2404.205078	6742.952148
2403.242188	6695.029785
2402.281250	6775.235840
2401.318359	6749.493164
2400.355469	6896.162598
2399.392578	6614.307129
2398.431641	6901.290527
2397.468750	6764.766113
2396.505859	6871.955566
2395.542969	6772.394043
2394.578125	6963.203125
2393.615234	6743.114258
2392.652344	6801.042480
2391.687500	6829.439941
2390.724609	6791.437500
2389.759766	6746.072266
2388.796875	6833.458008
2387.832031	6839.711426
2386.867188	6855.791992
2385.902344	6874.323730
2384.937500	6821.611816
2383.972656	6827.862305
2383.007813	6812.009277
2382.042969	6734.780273
2381.078125	6799.958008
2380.111328	6727.664063
2379.146484	6849.264648
2378.179688	6693.562012
2377.214844	6680.199219
2376.248047	6757.595215
2375.281250	6778.560059
2374.314453	6760.284668
2373.347656	6663.562988
2372.380859	6880.630859
2371.414063	6791.272949
2370.447266	6719.097168
2369.480469	6931.148926
2368.511719	6731.592773
2367.544922	6664.359863
2366.576172	6930.189941
2365.609375	6926.605469
2364.640625	6766.348633
2363.671875	6689.362793
2362.703125	6798.391113
2361.736328	6917.171387
2360.767578	6908.697754
2359.796875	6782.817871
2358.828125	6886.867676
2357.859375	6897.964844
2356.890625	6845.492676
2355.919922	6778.370605
2354.951172	6931.232422
2353.980469	6895.885254
2353.011719	6735.945313
2352.041016	6791.025879
2351.070313	6765.487793
2350.099609	6888.921387
2349.128906	6812.101563
2348.158203	6789.013184
2347.187500	6668.300293
2346.216797	6916.128418
2345.244141	6878.394043
2344.273438	6723.570313
2343.302734	6812.718262
2342.330078	6640.884277
2341.357422	6805.606934
2340.386719	6714.284180
2339.414063	6769.247559
2338.441406	6933.867676
2337.468750	6876.683594
2336.496094	6870.682617
2335.523438	6857.375488
2334.550781	6880.606445
2333.576172	6835.644043
2332.603516	6885.653320
2331.628906	6667.860840
2330.656250	6759.259277
2329.681641	6685.142090
2328.708984	6861.669922
2327.734375	6909.200195
2326.759766	6861.850586
2325.785156	6729.395508
2324.810547	6813.397949
2323.835938	6751.499512
2322.861328	6631.281250
2321.884766	6887.817871
2320.910156	6748.175781
2319.935547	6589.143066
2318.958984	6750.819336
2317.984375	6718.136719
2317.007813	6741.318359
2316.031250	6769.348145
2315.054688	6756.099121
2314.078125	6701.590820
2313.101563	6763.588379
2312.125000	6864.388672
2311.148438	6678.882813
2310.171875	6685.063477
2309.193359	6950.742676
2308.216797	6888.980469
2307.240234	6846.633789
2306.261719	6801.876953
2305.283203	6798.336426
2304.306641	6671.210938
2303.328125	6677.384277
2302.349609	6903.998535
2301.371094	6638.860840
2300.392578	6778.227051
2299.414063	6646.365723
2298.433594	6727.583496
2297.455078	6854.763672
2296.476563	6742.314941
2295.496094	6770.243652
2294.517578	6868.321777
2293.537109	6925.247070
2292.556641	6730.631348
2291.576172	6891.537109
2290.595703	6982.277344
2289.615234	6744.236328
2288.634766	6888.142090
2287.654297	6802.433105
2286.673828	6854.469727
2285.693359	6850.928223
2284.710938	6726.622070
2283.730469	6974.252930
2282.748047	6886.184570
2281.767578	6836.770996
2280.785156	6924.955078
2279.802734	6581.125977
2278.820313	6872.008789
2277.837891	6677.877441
2276.855469	7048.248047
2275.873047	6822.798828
2274.890625	6710.755859
2273.906250	6948.336426
2272.923828	6932.731445
2271.941406	6796.624023
2270.957031	6954.550781
2269.972656	6743.793457
2268.990234	6896.858887
2268.005859	6830.694336
2267.021484	6875.326660
2266.037109	6679.166992
2265.052734	6861.029785
2264.068359	6708.262207
2263.083984	6890.060547
2262.097656	6792.680176
2261.113281	6839.679688
2260.126953	6932.365723
2259.142578	6868.695801
2258.156250	6865.162109
2257.171875	6861.629395
2256.185547	6997.519043
2255.199219	6789.674316
2254.212891	6706.854980
2253.226563	6962.833984
2252.240234	6719.062988
2251.253906	6787.611816
2250.265625	6726.459473
2249.279297	6905.432617
2248.291016	6784.264160
2247.304688	6773.547363
2246.316406	6854.028809
2245.330078	6975.274902
2244.341797	6834.981445
2243.353516	6773.890137
2242.365234	6827.936523
2241.376953	6829.211426
2240.388672	6813.703613
2239.400391	6644.785156
2238.410156	6883.363770
2237.421875	6719.281738
2236.431641	6687.029297
2235.443359	6664.369629
2234.453125	6818.957031
2233.464844	6932.783203
2232.474609	6761.644043
2231.484375	6904.168945
2230.494141	6668.463867
2229.503906	6808.563477
2228.513672	6948.617188
2227.523438	6526.415039
2226.531250	6707.132324
2225.541016	6737.119141
2224.548828	6834.049805
2223.558594	6746.856445
2222.566406	6841.362793
2221.576172	6842.626953
2220.583984	6569.083496
2219.591797	6816.482422
2218.599609	6820.138672
2217.607422	6833.346680
2216.615234	6779.685059
2215.621094	6778.568848
2214.628906	6875.331543
2213.636719	6633.125488
2212.642578	6710.787598
2211.650391	6578.447754
2210.656250	6687.106934
2209.662109	6731.327148
2208.669922	6746.913574
2207.675781	6779.186035
2206.681641	6778.069824
2205.687500	6707.825684
2204.693359	6937.905273
2203.697266	6891.487305
2202.703125	6823.641113
2201.708984	6774.874023
2200.712891	6854.738770
2199.718750	6639.286133
2198.722656	6735.813477
2197.726563	6803.741211
2196.732422	6774.058594
2195.736328	6899.073242
2194.740234	6764.689453
2193.744141	6834.946289
2192.746094	6733.917969
2191.750000	6711.404785
2190.753906	6895.771973
2189.757813	6761.498047
2188.759766	6772.270020
2187.763672	6730.750977
2186.765625	6948.260742
2185.767578	6740.413086
2184.769531	6770.184570
2183.771484	6818.946289
2182.773438	6782.202148
2181.775391	6769.213379
2180.777344	6654.148926
2179.779297	6819.201172
2178.781250	6891.645508
2177.781250	6847.800293
2176.783203	6839.554688
2175.783203	6707.968750
2174.785156	6865.760254
2173.785156	6869.371582
2172.785156	6742.586426
2171.785156	6720.141602
2170.785156	6735.624512
2169.785156	6841.147949
2168.785156	6709.711914
2167.785156	6613.852051
2166.783203	6783.291504
2165.783203	6853.215820
2164.781250	6655.568359
2163.781250	6822.549316
2162.779297	6804.856445
2161.777344	6787.168945
2160.777344	6696.137695
2159.775391	6929.241699
2158.773438	6734.141113
2157.769531	6770.870117
2156.767578	6710.639648
2155.765625	6678.799316
2154.763672	6772.249512
2153.759766	6823.127930
2152.757813	6930.701172
2151.753906	6839.778809
2150.750000	6810.304199
2149.748047	6922.549805
2148.744141	6796.251465
2147.740234	6736.104004
2146.736328	6756.239258
2145.732422	6639.471680
2144.728516	6824.808105
2143.722656	6880.310547
2142.718750	6902.767090
2141.712891	6901.628418
2140.708984	6681.165039
2139.703125	6720.147949
2138.699219	6742.615234
2137.693359	6748.574707
2136.687500	6778.099609
2135.681641	6741.635742
2134.675781	6775.863770
2133.669922	6666.387695
2132.664063	6799.535645
2131.656250	6831.381348
2130.650391	6938.559082
2129.644531	6847.959961
2128.636719	6778.573730
2127.628906	6688.030762
2126.623047	6818.689453
2125.615234	6946.952148
2124.607422	6767.044922
2123.599609	6718.893555
2122.591797	6889.432617
2121.583984	6881.243164
2120.574219	6840.147949
2119.566406	6836.668457
2118.558594	6746.248535
2117.548828	7017.665527
2116.541016	6746.370605
2115.531250	6827.458984
2114.521484	6821.635742
2113.511719	6792.335449
2112.503906	6685.578613
2111.494141	6670.392578
2110.482422	6833.559570
2109.472656	6938.015137
2108.462891	6840.687012
2107.453125	6778.574219
2106.441406	6861.880371
2105.431641	6860.747070
2104.419922	6714.263672
2103.408203	6888.953613
2102.398438	6744.856934
2101.386719	6739.057129
2100.375000	6723.887207
2099.363281	6858.638184
2098.351563	6904.346191
2097.339844	6708.848633
2096.326172	6864.605957
2095.314453	6837.722656
2094.300781	6707.865723
2093.289063	6776.961426
2092.275391	6827.315918
2091.263672	6851.920898
2090.250000	6956.041992
2089.236328	6779.500488
2088.222656	6846.187988
2087.208984	6814.666016
2086.195313	6790.166016
2085.181641	6887.199219
2084.166016	6858.021973
2083.152344	6819.508789
2082.136719	6858.091797
2081.123047	6983.074707
2080.107422	6708.715332
2079.091797	6894.383301
2078.078125	7115.004395
2077.062500	6794.079590
2076.046875	6820.959961
2075.031250	6847.830566
2074.013672	6898.020020
2072.998047	6742.942383
2071.982422	6767.479980
2070.964844	6694.081543
2069.949219	6872.479980
2068.931641	6806.080566
2067.916016	6870.208496
2066.898438	6808.491211
2065.880859	6756.112305
2064.863281	6822.545410
2063.845703	6725.932129
2062.828125	6738.791504
2061.810547	6788.896973
2060.791016	6731.908203
2059.773438	6702.866699
2058.753906	6720.374512
2057.736328	6835.594238
2056.716797	6662.322754
2055.699219	6649.592285
2054.679688	6701.978516
2053.660156	6789.223145
2052.640625	6788.100586
2051.621094	6649.843750
2050.601563	6855.573242
2049.580078	6540.761719
2048.560547	6713.916992
2047.541016	6868.432129
2046.519531	6739.564941
2045.500000	6910.278320
2044.478516	6683.938477
2043.457031	6692.118164
2042.435547	6739.749023
2041.414063	6887.144043
2040.392578	6479.990234
2039.371094	6722.486816
2038.349609	6693.542969
2037.328125	6666.927734
2036.306641	6733.062500
2035.283203	6585.904297
2034.261719	6747.059082
2033.238281	6648.612305
2032.214844	6869.945801
2031.191406	6778.460449
2030.169922	6663.842773
2029.146484	6572.421387
2028.121094	6867.715332
2027.097656	6718.412598
2026.074219	6800.630371
2025.050781	6669.902832
2024.025391	6765.984863
2023.001953	6700.084961
2021.976563	6618.014648
2020.953125	6707.118652
2019.927734	6648.198242
2018.902344	6686.402344
2017.876953	6643.686035
2016.851563	6822.865234
2015.826172	6673.838867
2014.800781	6485.583496
2013.775391	6743.243164
2012.748047	6792.941406
2011.722656	6803.363281
2010.695313	6552.868164
2009.669922	6588.720703
2008.642578	6573.780273
2007.615234	6688.083496
2006.587891	6654.671875
2005.560547	6658.184082
2004.533203	6640.934570
2003.505859	6667.510254
2002.478516	6650.265137
2001.451172	6755.218262
2000.421875	6551.246094
1999.394531	6683.837891
1998.365234	6724.209961
1997.335938	6605.591797
1996.308594	6692.035645
1995.279297	6596.494141
1994.250000	6636.853027
1993.220703	6686.408203
1992.191406	6701.415527
1991.162109	6840.709961
1990.130859	6535.800293
1989.101563	6617.551758
1988.072266	6678.571289
1987.041016	6649.862305
1986.009766	6662.559570
1984.980469	6580.975586
1983.949219	6531.604980
1982.917969	6645.456055
1981.886719	6621.372070
1980.855469	6663.935547
1979.824219	6825.955566
1978.792969	6709.966797
1977.759766	6607.797363
1976.728516	6671.000977
1975.695313	6688.263672
1974.664063	6723.884766
1973.630859	6575.875000
1972.597656	6691.823242
1971.564453	6575.989746
1970.531250	6572.605469
1969.498047	6644.915039
1968.464844	6517.679688
1967.431641	6599.145996
1966.398438	6620.978027
1965.363281	6613.003906
1964.330078	6660.035645
1963.294922	6608.519531
1962.261719	6584.513184
1961.226563	6711.699707
1960.191406	6655.619629
1959.156250	6624.747070
1958.121094	6639.675293
1957.085938	6720.984375
1956.050781	6610.008301
1955.015625	6682.141113
1953.980469	6605.527832
1952.943359	6798.882324
1951.908203	6555.304688
1950.871094	6490.184570
1949.833984	6699.466797
1948.796875	6760.081055
1947.761719	6534.956543
1946.724609	6677.850586
1945.687500	6487.088867
1944.648438	6517.997070
1943.611328	6669.959473
1942.574219	6641.446777
1941.537109	6610.659668
1940.498047	6456.595703
1939.458984	6642.707031
1938.421875	6662.145996
1937.382813	6738.627441
1936.343750	6687.314453
1935.304688	6629.174805
1934.265625	6536.841797
1933.226563	6772.923340
1932.187500	6612.194336
1931.148438	6770.675293
1930.107422	6598.603516
1929.068359	6590.671387
1928.027344	6694.391113
1926.988281	6533.807617
1925.947266	6601.057129
1924.906250	6631.845703
1923.865234	6705.887207
1922.824219	6534.023926
1921.783203	6778.778320
1920.742188	6704.823730
1919.701172	6642.271484
1918.658203	6725.349609
1917.617188	6678.737305
1916.574219	6568.457520
1915.533203	6621.943359
1914.490234	6584.465820
1913.447266	6701.582031
1912.404297	6659.557129
1911.361328	6608.456055
1910.318359	6593.726074
1909.275391	6669.870605
1908.232422	6537.023438
1907.189453	6624.506348
1906.144531	6632.488770
1905.101563	6495.172363
1904.056641	6559.919922
1903.013672	6601.950684
1901.968750	6530.511719
1900.923828	6488.589355
1899.878906	6684.858887
1898.833984	6595.297363
1897.789063	6462.680664
1896.744141	6608.976563
1895.697266	6539.873047
1894.652344	6554.651855
1893.605469	6512.772949
1892.560547	6409.733398
1891.513672	6553.650879
1890.468750	6534.441895
1889.421875	6449.566406
1888.375000	6683.973145
1887.328125	6481.380371
1886.281250	6625.165039
1885.232422	6660.273926
1884.185547	6541.505859
1883.138672	6490.646973
1882.089844	6466.948730
1881.042969	6416.119141
1879.994141	6301.992188
1878.945313	6350.682617
1877.898438	6482.994141
1876.849609	6506.777344
1875.800781	6469.540527
1874.751953	6445.871582
1873.703125	6424.469727
1872.652344	6421.143066
1871.603516	6485.563477
1870.552734	6457.391113
1869.503906	6503.723633
1868.453125	6441.701172
1867.404297	6501.561035
1866.353516	6435.046387
1865.302734	6386.601563
1864.251953	6471.251465
1863.201172	6463.409668
1862.150391	6385.670410
1861.099609	6459.005371
1860.046875	6322.686523
1858.996094	6450.096191
1857.943359	6426.490234
1856.892578	6493.009766
1855.839844	6451.383301
1854.787109	6412.022461
1853.734375	6390.689453
1852.681641	6493.193359
1851.628906	6519.125977
1850.576172	6587.813477
1849.523438	6440.445801
1848.470703	6482.123535
1847.416016	6582.276367
1846.363281	6318.023926
1845.308594	6445.155762
1844.253906	6516.034180
1843.201172	6429.522461
1842.146484	6453.177734
1841.091797	6564.470215
1840.037109	6410.584473
1838.982422	6375.818848
1837.927734	6462.359863
1836.871094	6517.430664
1835.816406	6381.617676
1834.759766	6461.378906
1833.705078	6406.430176
1832.648438	6497.381836
1831.591797	6354.930176
1830.537109	6432.397949
1829.480469	6433.570313
1828.423828	6367.456543
1827.365234	6404.519043
1826.308594	6573.852539
1825.251953	6420.320313
1824.195313	6421.492676
1823.136719	6375.603516
1822.078125	6374.541992
1821.021484	6416.044922
1819.962891	6453.054199
1818.904297	6478.853516
1817.845703	6345.666504
1816.787109	6396.101074
1815.728516	6334.599609
1814.669922	6389.494629
1813.611328	6480.173340
1812.550781	6326.960449
1811.492188	6446.698242
1810.431641	6347.217773
1809.373047	6372.994141
1808.312500	6316.038574
1807.251953	6397.695801
1806.191406	6378.750000
1805.130859	6324.055664
1804.070313	6340.876465
1803.009766	6384.498047
1801.949219	6374.500000
1800.886719	6431.500000
1799.826172	6363.444824
1798.763672	6422.659668
1797.703125	6278.738281
1796.640625	6420.519043
1795.578125	6368.129395
1794.515625	6369.298828
1793.453125	6308.012207
1792.390625	6298.040039
1791.328125	6540.040039
1790.263672	6324.923828
1789.201172	6421.948730
1788.138672	6385.218750
1787.074219	6446.547363
1786.009766	6365.266602
1784.947266	6368.660645
1783.882813	6412.143066
1782.818359	6337.588379
1781.753906	6503.517090
1780.689453	6469.041016
1779.625000	6285.453125
1778.558594	6304.433105
1777.494141	6385.706055
1776.429688	6333.475098
1775.363281	6341.315918
1774.296875	6291.333496
1773.232422	6294.731445
1772.166016	6269.227051
1771.099609	6414.883789
1770.033203	6391.589844
1768.966797	6274.979004
1767.900391	6338.359863
1766.832031	6377.285645
1765.765625	6376.221680
1764.699219	6357.394043
1763.630859	6362.993652
1762.562500	6321.976074
1761.496094	6454.086914
1760.427734	6226.666504
1759.359375	6396.466309
1758.291016	6184.659180
1757.222656	6290.088867
1756.154297	6353.348633
1755.083984	6294.641113
1754.015625	6320.192871
1752.945313	6312.488770
1751.876953	6413.375488
1750.806641	6270.499023
1749.736328	6296.036621
1748.667969	6529.774414
1747.597656	6336.013184
1746.527344	6337.169922
1745.457031	6411.383789
1744.384766	6217.738281
1743.314453	6353.915039
1742.244141	6220.088379
1741.171875	6435.864746
1740.101563	6357.369629
1739.029297	6312.075195
1737.957031	6288.908203
1736.884766	6343.131348
1735.812500	6116.595703
1734.740234	6259.236328
1733.667969	6107.923828
1732.595703	6166.559082
1731.523438	6335.627930
1730.449219	6202.047852
1729.376953	6163.470215
1728.302734	6308.166992
1727.230469	6179.072266
1726.156250	6319.303223
1725.082031	6338.109375
1724.007813	6220.106934
1722.933594	6139.647461
1721.859375	6306.259277
1720.785156	6172.882324
1719.710938	6200.516602
1718.634766	6261.210938
1717.560547	6198.444824
1716.484375	6267.934570
1715.408203	6200.781250
1714.333984	6246.011719
1713.257813	6112.799316
1712.181641	6312.200195
1711.105469	6368.399414
1710.029297	6173.584961
1708.951172	6190.164063
1707.875000	6167.120117
1706.798828	6240.909668
1705.720703	6281.671387
1704.644531	6139.830078
1703.566406	6169.596680
1702.488281	6104.790527
1701.410156	6090.577637
1700.332031	6144.519531
1699.253906	6130.304199
1698.175781	6149.058105
1697.097656	6209.554688
1696.017578	6120.639648
1694.939453	6113.026367
1693.859375	6180.086426
1692.781250	6174.661621
1691.701172	6215.342773
1690.621094	6012.354980
1689.541016	6246.185059
1688.462891	6109.090332
1687.380859	6035.667480
1686.300781	6243.052246
1685.220703	6169.630371
1684.140625	6183.949219
1683.058594	6121.523926
1681.978516	6142.421875
1680.896484	6178.654785
1679.814453	6092.155762
1678.734375	6148.104004
1677.652344	5974.011230
1676.570313	6163.570313
1675.488281	6186.628418
1674.404297	6137.422363
1673.322266	6090.421875
1672.240234	6122.235840
1671.156250	6048.991211
1670.074219	6076.424805
1668.990234	6116.975586
1667.906250	6140.013184
1666.822266	6020.886230
1665.738281	5943.345703
1664.654297	6099.764160
1663.570313	6030.979492
1662.486328	6185.145508
1661.402344	6111.998535
1660.316406	6010.473145
1659.232422	6009.467285
1658.146484	6032.486328
1657.062500	6079.519043
1655.976563	6093.784668
1654.890625	5955.235352
1653.804688	6104.840332
1652.718750	5887.773438
1651.632813	5963.154297
1650.546875	6151.950195
1649.458984	5889.179199
1648.373047	6097.550781
1647.285156	6083.447266
1646.199219	5953.803711
1645.111328	6024.737305
1644.023438	6150.130859
1642.937500	5968.245117
1641.849609	5962.888184
1640.759766	6149.219727
1639.671875	6002.270996
1638.583984	5938.117188
1637.496094	5926.236816
1636.406250	6049.321777
1635.318359	5924.251953
1634.228516	6012.478027
1633.138672	5883.104492
1632.050781	5921.274902
1630.960938	6042.081543
1629.871094	6132.402832
1628.781250	5977.003906
1627.689453	6017.306152
1626.599609	5970.654297
1625.509766	5826.225586
1624.417969	5912.160645
1623.328125	5924.204590
1622.236328	6016.610352
1621.144531	5865.755371
1620.052734	6042.821289
1618.960938	5948.457031
1617.869141	5819.394043
1616.777344	5824.929688
1615.685547	6095.187988
1614.593750	5903.249023
1613.500000	5711.374023
1612.408203	5981.515137
1611.314453	5895.943848
1610.222656	5959.997070
1609.128906	5887.463867
1608.035156	5979.672363
1606.941406	5779.308594
1605.847656	5897.502930
1604.753906	5890.015137
1603.658203	5828.382813
1602.564453	5853.391602
1601.470703	5919.529785
1600.375000	6078.731934
1599.281250	5975.984375
1598.185547	6063.708496
1597.089844	6043.218262
1595.994141	6022.734863
1594.898438	5816.241699
1593.802734	5945.022949
1592.707031	6073.760742
1591.609375	5938.705078
1590.513672	5885.832031
1589.417969	6020.998047
1588.320313	5886.018066
1587.222656	5930.399902
1586.126953	6028.768066
1585.029297	5842.021484
1583.931641	5892.865723
1582.833984	5937.215332
1581.736328	5925.426270
1580.636719	5943.855957
1579.539063	5878.121582
1578.441406	5788.676270
1577.341797	5897.720703
1576.244141	6000.257813
1575.144531	5936.713867
1574.044922	5840.849121
1572.945313	5986.458496
1571.845703	5853.976074
1570.746094	5893.938477
1569.646484	5783.062500
1568.546875	5747.623047
1567.445313	5768.197266
1566.345703	5993.352539
1565.244141	5893.299316
1564.144531	5857.864258
1563.042969	5979.571777
1561.941406	5791.333984
1560.839844	5809.727051
1559.738281	5739.907227
1558.636719	5850.796875
1557.535156	5720.773926
1556.431641	5833.779785
1555.330078	5830.649902
1554.228516	5926.401855
1553.125000	5755.617676
1552.021484	5868.540527
1550.917969	5684.932617
1549.816406	5780.643555
1548.712891	5777.524902
1547.609375	5894.662109
1546.503906	5659.642578
1545.400391	5772.466797
1544.296875	5790.813965
1543.191406	5841.344727
1542.087891	5743.810547
1540.982422	5850.107910
1539.876953	5778.343262
1538.773438	5719.470215
1537.667969	5707.788086
1536.562500	5678.958984
1535.457031	5780.890625
1534.349609	5666.334961
1533.244141	5753.234863
1532.138672	5822.965820
1531.031250	5637.774414
1529.925781	5692.509277
1528.818359	5661.574707
1527.710938	5682.032227
1526.603516	5693.920410
1525.496094	5812.814941
1524.388672	5570.034668
1523.281250	5716.723145
1522.173828	5600.248535
1521.064453	5691.274414
1519.957031	5671.071289
1518.847656	5774.882324
1517.740234	5647.787598
1516.630859	5687.447266
1515.521484	5524.080566
1514.412109	5604.342773
1513.302734	5513.677734
1512.193359	5719.932129
1511.083984	5458.434570
1509.974609	5683.845215
1508.863281	5704.237305
1507.753906	5679.798828
1506.642578	5535.858398
1505.531250	5635.213379
1504.421875	5617.198242
1503.310547	5658.913574
1502.199219	5698.481934
1501.087891	5716.713867
1499.976563	5694.432617
1498.863281	5533.605469
1497.751953	5513.493164
1496.638672	5683.035156
1495.527344	5624.554688
1494.414063	5608.697266
1493.300781	5543.859375
1492.189453	5702.634277
1491.076172	5659.092773
1489.962891	5528.288086
1488.849609	5580.566895
1487.734375	5581.755371
1486.621094	5606.347656
1485.507813	5477.766602
1484.392578	5504.494629
1483.277344	5486.555176
1482.164063	5594.068359
1481.048828	5514.469727
1479.933594	5575.180664
1478.818359	5663.498047
1477.703125	5632.797363
1476.587891	5568.116211
1475.472656	5571.426758
1474.355469	5521.643066
1473.240234	5650.237793
1472.123047	5460.339355
1471.005859	5389.373047
1469.890625	5547.636230
1468.773438	5555.189453
1467.656250	5465.147949
1466.539063	5525.742188
1465.421875	5450.581543
1464.302734	5496.314453
1463.185547	5569.593262
1462.068359	5602.571289
1460.949219	5538.044922
1459.830078	5439.634766
1458.712891	5498.041992
1457.593750	5486.523926
1456.474609	5417.823730
1455.355469	5482.557129
1454.236328	5485.868164
1453.117188	5548.451172
1451.996094	5401.473145
1450.876953	5536.000000
1449.755859	5496.981445
1448.636719	5525.671875
1447.515625	5503.589355
1446.394531	5481.513672
1445.273438	5374.868652
1444.152344	5403.559570
1443.031250	5345.578125
1441.910156	5543.332520
1440.789063	5582.544922
1439.667969	5442.169434
1438.544922	5458.149902
1437.423828	5423.438477
1436.300781	5411.966309
1435.177734	5596.840820
1434.054688	5507.240723
1432.931641	5415.560547
1431.808594	5401.986328
1430.685547	5529.772461
1429.562500	5438.134277
1428.439453	5378.162598
1427.314453	5332.972168
1426.191406	5296.230469
1425.066406	5390.197754
1423.941406	5288.120605
1422.816406	5304.086914
1421.691406	5541.277344
1420.566406	5298.084473
1419.441406	5366.696289
1418.316406	5380.532227
1417.191406	5487.005859
1416.064453	5528.183594
1414.939453	5459.896484
1413.812500	5467.393066
1412.687500	5409.659668
1411.560547	5406.643066
1410.433594	5502.486816
1409.306641	5461.600098
1408.179688	5471.191895
1407.052734	5321.002930
1405.923828	5465.141113
1404.796875	5285.580566
1403.667969	5326.713867
1402.541016	5502.291504
1401.412109	5375.329102
1400.283203	5334.517578
1399.156250	5335.716797
1398.027344	5399.900391
1396.898438	5338.113281
1395.767578	5228.075195
1394.638672	5418.149414
1393.509766	5375.272949
1392.378906	5267.381348
1391.250000	5279.076172
1390.119141	5269.796875
1388.988281	5365.353027
1387.859375	5293.172363
1386.728516	5390.788086
1385.597656	5303.958008
1384.464844	5347.062012
1383.333984	5383.867188
1382.203125	5188.165527
1381.070313	5379.954102
1379.939453	5293.198242
1378.806641	5294.397461
1377.673828	5155.356934
1376.542969	5219.361328
1375.410156	5308.453125
1374.277344	5213.413574
1373.144531	5296.201172
1372.009766	5163.550781
1370.876953	5350.868164
1369.744141	5333.238770
1368.609375	5171.384766
1367.476563	5254.108398
1366.341797	5165.457520
1365.207031	5168.762695
1364.072266	5180.422363
1362.937500	5189.989258
1361.802734	5170.318359
1360.667969	5136.039063
1359.533203	5360.617676
1358.396484	5144.738281
1357.261719	5252.380371
1356.125000	5184.727051
1354.988281	5269.378418
1353.853516	5195.487793
1352.716797	5217.548340
1351.580078	5179.136230
1350.443359	5115.720703
1349.304688	5269.093262
1348.167969	5136.914063
1347.031250	5108.958496
1345.892578	5197.673340
1344.755859	5146.805176
1343.617188	5070.963379
1342.478516	5070.105469
1341.339844	5167.093750
1340.201172	5005.946289
1339.062500	4978.044434
1337.923828	4970.959961
1336.785156	5111.587402
1335.646484	5146.083496
1334.505859	5043.307129
1333.365234	5148.500977
1332.226563	5051.995117
1331.085938	5022.039063
1329.945313	5123.026367
1328.804688	5128.393066
1327.664063	5036.110840
1326.523438	5110.039551
1325.382813	5048.944336
1324.240234	4977.487305
1323.099609	5080.454590
1321.957031	5048.456543
1320.816406	4985.337402
1319.673828	5003.169434
1318.531250	5035.519043
1317.388672	5047.113281
1316.246094	5008.925293
1315.103516	5041.256836
1313.960938	5034.183105
1312.816406	4981.504883
1311.673828	4984.806641
1310.529297	5106.229980
1309.386719	5121.941406
1308.242188	5042.351563
1307.097656	5099.493652
1305.953125	4939.168457
1304.808594	5074.989746
1303.664063	5069.989746
1302.519531	5052.571777
1301.375000	5014.464844
1300.228516	5032.237793
1299.083984	5002.421875
1297.937500	4908.492676
1296.791016	5037.953125
1295.644531	5092.929199
1294.498047	4905.998047
1293.351563	5072.600098
1292.205078	5119.274902
1291.058594	5165.934082
1289.912109	4851.022949
1288.763672	5046.439941
1287.617188	4973.298340
1286.468750	4968.325684
1285.320313	4946.836914
1284.173828	5071.919434
1283.025391	4976.119141
1281.876953	4810.189941
1280.726563	5075.530273
1279.578125	4965.337402
1278.429688	4993.371094
1277.279297	4866.731934
1276.130859	5016.419922
1274.980469	4943.417480
1273.832031	4913.723633
1272.681641	4867.553223
1271.531250	4984.172363
1270.380859	4915.344727
1269.230469	4937.167969
1268.078125	4950.746094
1266.927734	4986.969238
1265.777344	4932.597656
1264.625000	4882.360840
1263.474609	4955.620117
1262.322266	4956.837402
1261.169922	4742.039063
1260.017578	4909.903320
1258.865234	4798.014648
1257.712891	4889.731445
1256.560547	4946.466309
1255.406250	4888.072266
1254.253906	4827.642090
1253.099609	4820.658691
1251.947266	4840.385254
1250.792969	4932.000488
1249.638672	4828.473633
1248.484375	4883.097656
1247.330078	4859.684570
1246.175781	4947.127930
1245.021484	4845.720703
1243.867188	4826.429688
1242.710938	4862.541016
1241.556641	4951.975586
1240.400391	4848.584473
1239.244141	4888.774414
1238.087891	4912.548340
1236.933594	4762.066895
1235.775391	4759.208496
1234.619141	4877.258301
1233.462891	4755.543945
1232.306641	4859.213379
1231.148438	4880.918945
1229.992188	4853.467285
1228.833984	4840.357910
1227.675781	4851.818848
1226.519531	4863.275879
1225.361328	4741.707520
1224.203125	4820.701172
1223.042969	4750.325684
1221.884766	4845.654297
1220.726563	4824.380371
1219.566406	4788.800293
1218.408203	4824.785645
1217.248047	4778.997070
1216.089844	4702.567871
1214.929688	4722.202637
1213.769531	4870.540039
1212.609375	4751.237793
1211.449219	4552.325684
1210.287109	4708.783691
1209.126953	4826.397461
1207.964844	4723.513672
1206.804688	4708.424316
1205.642578	4711.705078
1204.482422	4753.749512
1203.320313	4640.747559
1202.158203	4668.512207
1200.996094	4533.131836
1199.832031	4713.818359
1198.669922	4790.480469
1197.507813	4687.757813
1196.343750	4699.187988
1195.181641	4747.288086
1194.017578	4593.697266
1192.853516	4682.533691
1191.691406	4693.956055
1190.527344	4721.663086
1189.363281	4659.788086
1188.197266	4614.217285
1187.033203	4650.062988
1185.869141	4669.619141
1184.703125	4617.966309
1183.539063	4476.834961
1182.373047	4768.919434
1181.207031	4507.844727
1180.041016	4651.418457
1178.875000	4520.539551
1177.708984	4558.383301
1176.542969	4462.107422
1175.376953	4540.580078
1174.208984	4641.369141
1173.042969	4640.579102
1171.875000	4623.545410
1170.708984	4663.362305
1169.541016	4524.539063
1168.373047	4578.565430
1167.205078	4628.515137
1166.037109	4390.355957
1164.869141	4458.576660
1163.699219	4545.027344
1162.531250	4534.114746
1161.361328	4573.891602
1160.193359	4548.788086
1159.023438	4497.344727
1157.853516	4456.051270
1156.683594	4370.198242
1155.513672	4452.508301
1154.343750	4571.246582
1153.173828	4578.568359
1152.003906	4474.530273
1150.832031	4491.987305
1149.662109	4491.222168
1148.490234	4575.450195
1147.318359	4515.995605
1146.146484	4397.895020
1144.974609	4453.779297
1143.802734	4455.042969
1142.630859	4446.196289
1141.458984	4368.619141
1140.287109	4489.148438
1139.113281	4544.968750
1137.941406	4523.988770
1136.767578	4472.713379
1135.593750	4433.573730
1134.419922	4400.506348
1133.246094	4486.580566
1132.072266	4532.249023
1130.898438	4432.571289
1129.724609	4571.066895
1128.550781	4519.843262
1127.375000	4404.078613
1126.201172	4407.362305
1125.025391	4396.527344
1123.849609	4472.401367
1122.673828	4451.478516
1121.498047	4545.458496
1120.322266	4395.545410
1119.146484	4420.991699
1117.970703	4426.282227
1116.792969	4411.426758
1115.617188	4340.184570
1114.439453	4361.594727
1113.261719	4525.943359
1112.085938	4541.275391
1110.908203	4474.083984
1109.730469	4364.657227
1108.552734	4333.733887
1107.373047	4385.296387
1106.195313	4326.221680
1105.017578	4438.095215
1103.837891	4312.682617
1102.658203	4289.834473
1101.480469	4375.527832
1100.300781	4334.590820
1099.121094	4287.639648
1097.941406	4292.934570
1096.761719	4326.346680
1095.580078	4411.959961
1094.400391	4338.925293
1093.220703	4396.402344
1092.039063	4403.680664
1090.857422	4310.616211
1089.677734	4279.783691
1088.496094	4331.212402
1087.314453	4280.328613
1086.132813	4367.836914
1084.951172	4324.984863
1083.767578	4400.426758
1082.585938	4397.671387
1081.402344	4290.705078
1080.220703	4275.946777
1079.037109	4389.409180
1077.853516	4238.432129
1076.669922	4241.713867
1075.486328	4208.951660
1074.302734	4372.397949
1073.119141	4289.583008
1071.935547	4280.845215
1070.750000	4158.053711
1069.566406	4377.415039
1068.380859	4368.666016
1067.197266	4403.919434
1066.011719	4547.139648
1064.826172	4394.417969
1063.640625	4199.770020
1062.455078	4263.007813
1061.267578	4322.227051
1060.082031	4373.434570
1058.894531	4276.803711
1057.708984	4260.095215
1056.521484	4135.560059
1055.333984	4256.643066
1054.148438	4303.824707
1052.960938	4143.419922
1051.773438	4228.519531
1050.583984	4211.835449
1049.396484	4237.048340
1048.208984	4324.082520
1047.019531	4207.682129
1045.832031	4173.067871
1044.642578	4120.523926
1043.453125	4229.442383
1042.263672	4182.885254
1041.074219	4118.411133
1039.884766	4141.612793
1038.695313	4073.184082
1037.503906	4112.316406
1036.314453	4177.319336
1035.125000	4045.215332
1033.933594	4080.351074
1032.742188	4171.196777
1031.550781	4182.421875
1030.359375	4221.494629
1029.167969	4159.111816
1027.976563	4210.106934
1026.785156	4169.619141
1025.591797	4156.978027
1024.400391	4102.599121
1023.207031	4093.947998
1022.015625	4079.338379
1020.822266	4026.987061
1019.628906	4113.696777
1018.435547	4214.278809
1017.242188	3965.350830
1016.048828	4083.791260
1014.853516	4120.807129
1013.660156	4001.023682
1012.464844	4087.647949
1011.271484	4104.804199
1010.076172	4048.560303
1008.880859	4055.800537
1007.685547	4067.003906
1006.490234	4066.307861
1005.294922	4099.310059
1004.099609	3985.638916
1002.904297	4086.017334
1001.707031	4000.124512
1000.509766	3949.916992
999.314453	3931.415771
998.117188	3912.920654
996.919922	3991.446045
995.722656	4058.067139
994.525391	4075.185059
993.328125	4038.867676
992.130859	4020.369141
990.931641	4035.506104
989.734375	4011.080811
988.535156	4014.348877
987.335938	4118.451172
986.136719	4096.000488
984.939453	4120.993652
983.738281	4023.455811
982.539063	3993.129395
981.339844	3974.666016
980.140625	4023.363525
978.939453	4010.825439
977.740234	4004.214600
976.539063	3936.408203
975.337891	4012.711426
974.136719	3948.873535
972.935547	3944.250488
971.734375	4014.594482
970.533203	4078.996826
969.332031	4046.744141
968.128906	3900.140137
966.927734	3990.156982
965.724609	4011.155029
964.523438	3902.076416
963.320313	3930.963623
962.117188	3993.332031
960.914063	4002.495850
959.710938	4015.595459
958.505859	3855.413330
957.302734	4041.780518
956.097656	4003.688232
954.894531	3877.046875
953.689453	3898.026855
952.484375	3920.966797
951.281250	3957.667725
950.076172	3951.088867
948.869141	4031.031982
947.664063	4008.714355
946.458984	3846.840576
945.253906	3916.933105
944.046875	4028.266602
942.839844	4053.116455
941.634766	3983.669189
940.427734	3922.101807
939.220703	3870.373779
938.013672	3887.379639
936.806641	3939.713135
935.597656	3766.323975
934.390625	3901.077148
933.183594	3927.875244
931.974609	3835.004150
930.765625	3932.411133
929.556641	3919.970215
928.349609	3911.454834
927.140625	3946.068848
925.929688	3888.552734
924.720703	3860.450439
923.511719	3893.095459
922.300781	3770.972412
921.091797	3874.131348
919.880859	3877.382813
918.669922	3937.413086
917.460938	3793.832031
916.250000	3906.701904
915.039063	3771.002930
913.826172	3831.009521
912.615234	3855.782959
911.404297	3800.354980
910.191406	3907.259521
908.980469	3752.123535
907.767578	3780.802734
906.554688	3858.336426
905.341797	3750.190186
904.128906	3802.301514
902.916016	3832.905273
901.703125	3855.685547
900.488281	3773.001465
899.275391	3846.550537
898.060547	3879.077393
896.847656	3813.998291
895.632813	3686.491699
894.417969	3783.419189
893.203125	3769.112793
891.988281	3754.811035
890.773438	3775.618164
889.556641	3866.613525
888.341797	3723.632080
887.125000	3713.245850
885.910156	3697.016602
884.693359	3786.013672
883.476563	3742.502441
882.259766	3708.745117
881.042969	3725.635254
879.826172	3691.892090
878.609375	3730.194580
877.390625	3721.767090
876.173828	3725.019287
874.955078	3767.187744
873.738281	3754.866699
872.519531	3686.139160
871.300781	3769.134033
870.082031	3714.039063
868.863281	3668.683838
867.642578	3745.806885
866.423828	3682.969727
865.205078	3744.518066
863.984375	3677.816895
862.763672	3729.632080
861.544922	3785.313721
860.324219	3739.999756
859.103516	3717.999512
857.882813	3641.653809
856.660156	3668.198975
855.439453	3716.080322
854.218750	3699.919434
852.996094	3670.184814
851.773438	3696.706299
850.552734	3670.860596
849.330078	3705.127930
848.107422	3756.829834
846.884766	3655.397949
845.662109	3724.531006
844.437500	3619.264404
843.214844	3663.196045
841.990234	3650.944336
840.767578	3658.061768
839.542969	3676.793457
838.318359	3654.866211
837.093750	3760.689453
835.869141	3564.589355
834.644531	3639.434082
833.419922	3706.515137
832.195313	3711.679199
830.968750	3573.737061
829.742188	3633.060303
828.517578	3667.231445
827.291016	3624.077148
826.064453	3644.710449
824.837891	3734.894775
823.611328	3687.886963
822.384766	3596.470459
821.156250	3624.818359
819.929688	3670.534180
818.701172	3602.333740
817.474609	3593.992188
816.246094	3657.057617
815.017578	3619.766602
813.789063	3785.052246
812.560547	3589.585938
811.332031	3664.179443
810.101563	3663.547852
808.873047	3803.649170
807.642578	3677.704834
806.414063	3740.667969
805.183594	3632.119141
803.953125	3685.435547
802.722656	3598.121338
801.492188	3612.907959
800.261719	3812.539307
799.031250	3611.661865
797.798828	3620.663330
796.568359	3685.472900
795.335938	3623.262939
794.103516	3580.312744
792.873047	3675.871826
791.640625	3727.164307
790.408203	3634.223633
789.173828	3643.209229
787.941406	3656.036133
786.708984	3640.030273
785.474609	3597.128418
784.242188	3608.034912
783.007813	3755.320068
781.773438	3572.219971
780.539063	3723.300537
779.304688	3666.981445
778.070313	3745.050293
776.835938	3546.723877
775.599609	3711.136475
774.365234	3662.531738
773.128906	3631.208008
771.894531	3657.431641
770.658203	3585.850342
769.421875	3719.437744
768.185547	3630.617920
766.949219	3779.483887
765.710938	3765.417480
764.474609	3703.458252
763.238281	3651.097900
762.000000	3763.467285
760.761719	3682.390625
759.525391	3769.825684
758.287109	3759.603271
757.048828	3734.072998
755.810547	3752.563965
754.570313	3644.772705
753.332031	3626.926758
752.093750	3674.115234
750.853516	3749.971680
749.613281	3829.625488
748.375000	3737.206299
747.134766	3899.019531
745.894531	3758.846191
744.654297	3698.967529
743.412109	3600.903320
742.171875	3728.248535
740.931641	3773.435303
739.689453	3702.138916
738.447266	3718.679932
737.207031	3737.123535
735.964844	3726.936035
734.722656	3806.427002
733.480469	3697.032715
732.238281	3650.617920
730.994141	3684.312500
729.751953	3748.502197
728.507813	3755.479492
727.265625	3810.104248
726.021484	3769.426270
724.777344	3780.206299
723.533203	3752.882568
722.289063	3708.425537
721.044922	3683.027588
719.800781	3777.592041
718.554688	3839.760742
717.310547	3759.155029
716.064453	3669.061768
714.818359	3839.671143
713.572266	3766.716309
712.326172	3735.631836
711.080078	3706.459717
709.833984	3677.297363
708.587891	3779.318604
707.339844	3676.024902
706.093750	3734.301514
704.845703	3703.253906
703.599609	3799.500244
702.351563	3800.742188
701.103516	3703.230713
699.855469	3850.693359
698.607422	3736.120605
697.357422	3805.703857
696.109375	3681.689453
694.859375	3682.949463
693.611328	3746.813965
692.361328	3877.043945
691.111328	3747.413086
689.861328	3788.479248
688.611328	3675.970703
687.361328	3745.466797
686.111328	3888.849609
684.859375	3757.433350
683.609375	3764.360596
682.357422	3680.365479
681.105469	3692.984863
679.855469	3849.506592
678.603516	3746.607910
677.351563	3776.244385
676.097656	3813.440918
674.845703	3602.746094
673.593750	3795.092773
672.339844	3788.760498
671.087891	3833.493164
669.833984	3927.373291
668.580078	3720.621826
667.326172	3859.854248
666.072266	3887.533936
664.818359	3841.510254
663.562500	3852.179932
662.308594	3859.068115
661.054688	3915.056885
659.798828	3818.076660
658.542969	3877.828857
657.287109	3843.179688
656.031250	3782.120117
654.775391	3773.916748
653.519531	3910.986328
652.263672	3953.693359
651.005859	3926.604004
649.750000	3948.551025
648.492188	4059.100342
647.236328	3971.686523
645.978516	3963.458984
644.720703	4107.865723
643.462891	3988.460449
642.205078	3989.652344
640.945313	4041.694336
639.687500	4099.367188
638.427734	3998.872803
637.169922	4064.062256
635.910156	3937.259521
634.650391	3976.092773
633.390625	4131.559082
632.130859	3912.637451
630.871094	4026.684326
629.611328	4135.049805
628.349609	4053.488281
627.089844	3943.758057
625.828125	4012.613037
624.566406	3985.608887
623.304688	4037.523193
622.042969	3856.489746
620.781250	4041.756104
619.519531	4016.642822
618.257813	3974.640869
616.994141	4037.774170
615.732422	4085.870850
614.468750	4008.224609
613.205078	3986.890625
611.943359	3864.267334
610.679688	4002.385742
609.416016	3825.421387
608.150391	3918.500977
606.886719	3908.447510
605.623047	3832.799561
604.357422	3886.477051
603.091797	3872.686768
601.828125	3785.844482
600.562500	3755.219971
599.296875	3767.675781
598.031250	3767.021240
596.763672	3697.104492
595.498047	3784.428467
594.232422	3731.374512
592.964844	3766.274658
591.697266	3769.361328
590.431641	3746.262451
589.164063	3717.561279
587.896484	3748.699707
586.628906	3660.188721
585.359375	3693.194824
584.091797	3640.229248
582.822266	3527.493896
581.554688	3666.984619
580.285156	3612.182861
579.015625	3589.145996
577.746094	3577.319580
576.476563	3638.300293
575.207031	3632.068359
573.937500	3711.679199
572.667969	3617.744873
571.396484	3577.941162
570.126953	3495.253174
568.855469	3610.263184
567.583984	3633.873535
566.312500	3650.018799
565.041016	3517.051758
563.769531	3579.799316
562.498047	3564.270996
561.224609	3556.199463
559.953125	3568.618408
558.679688	3528.891113
557.406250	3498.486816
556.134766	3607.710449
554.861328	3474.934570
553.587891	3459.442627
552.312500	3510.937012
551.039063	3447.076904
549.765625	3520.874756
548.490234	3458.894287
547.216797	3502.915283
545.941406	3496.728760
544.666016	3360.438477
543.390625	3454.628174
542.115234	3405.718506
540.839844	3445.994629
539.562500	3506.687256
538.287109	3344.514893
537.009766	3433.054443
535.734375	3408.323730
534.457031	3422.578613
533.179688	3342.185791
531.902344	3423.241943
530.625000	3443.051758
529.347656	3349.713623
528.068359	3304.623291
526.791016	3320.734863
525.511719	3394.308350
524.234375	3352.940430
522.955078	3378.300537
521.675781	3353.625000
520.396484	3434.551025
519.117188	3387.647949
517.837891	3411.131836
516.556641	3375.358154
515.277344	3430.306396
513.996094	3420.454102
512.714844	3438.363525
511.435547	3519.175293
510.154297	3457.514404
508.873047	3606.729492
507.589844	3541.375977
506.308594	3586.982666
505.027344	3601.146240
503.744141	3524.737549
502.462891	3649.786377
501.179688	3658.388428
499.896484	3600.482666
498.613281	3699.594238
497.330078	3558.599609
496.046875	3602.291992
494.761719	3778.885498
493.478516	3623.184570
492.195313	3652.079102
490.910156	3679.118408
489.625000	3573.324707
488.339844	3524.745605
487.054688	3507.533447
485.769531	3486.639648
484.484375	3543.179443
483.197266	3516.756836
481.912109	3481.129150
480.625000	3463.938965
479.339844	3634.659180
478.052734	3505.093262
476.765625	3476.858154
475.478516	3527.805908
474.191406	3387.280762
472.904297	3440.066650
471.615234	3481.792480
470.328125	3547.422852
469.039063	3403.312500
467.750000	3514.916016
466.462891	3462.810791
465.173828	3510.011475
463.884766	3450.571533
462.593750	3512.461914
461.304688	3460.392822
460.015625	3437.739990
458.724609	3521.644287
457.433594	3524.702637
456.144531	3483.685791
454.853516	3459.208008
453.562500	3398.023193
452.271484	3424.961426
450.978516	3514.284668
449.687500	3379.729248
448.396484	3340.614502
447.103516	3323.523193
445.810547	3220.246582
444.519531	3228.851563
443.226563	3127.460693
441.933594	3218.558838
440.638672	3141.028320
439.345703	3202.775879
438.052734	3165.577393
436.757813	3132.055176
435.464844	3164.470947
434.169922	3090.678955
432.875000	3104.783936
431.580078	3076.786133
430.285156	3129.318359
428.990234	3086.688477
427.695313	3514.221436
426.398438	5741.391113
425.103516	6204.884766
423.806641	5258.511230
422.509766	3140.661377
421.212891	3101.729004
419.916016	3092.049316
418.619141	3065.928467
417.322266	3089.140869
416.025391	3209.148926
414.726563	3004.056152
413.429688	3058.306152
412.130859	3145.396973
410.832031	3101.041260
409.533203	3018.378418
408.234375	3019.674805
406.935547	3241.705811
405.636719	3202.835938
404.335938	3291.632813
403.037109	3238.180908
401.736328	3113.651611
400.435547	3273.500732
399.134766	3209.145752
397.833984	3232.270508
396.533203	3189.805420
395.232422	3201.996582
393.931641	3294.310547
392.628906	3111.658936
391.328125	3242.185059
390.025391	3210.675537
388.722656	3315.661133
387.419922	3302.344238
386.117188	3221.723145
384.814453	3213.883545
383.511719	3258.783691
382.207031	3192.757568
380.904297	3277.638916
379.599609	3266.159424
378.296875	3263.770020
376.992188	3234.127441
375.687500	3262.626465
374.382813	3327.441162
373.076172	3335.938232
371.771484	3295.409180
370.466797	3323.877197
369.160156	3306.959473
367.853516	3377.153320
366.548828	3418.292236
365.242188	3546.491455
363.935547	3505.967529
362.628906	3454.577148
361.320313	3635.282227
360.013672	3652.772949
358.705078	3706.506836
357.398438	3709.481445
356.089844	3721.513916
354.781250	3681.008057
353.472656	3660.439209
352.164063	3676.095459
350.855469	3639.239502
349.546875	3638.601318
348.236328	3599.954590
346.927734	3564.940430
345.617188	3508.227051
344.306641	3473.241211
342.996094	3418.372070
341.685547	3341.821777
340.375000	3366.548096
339.064453	3362.342041
337.753906	3260.538086
336.441406	3278.036621
335.130859	3169.055908
333.818359	3229.918945
332.505859	3337.719727
331.193359	3234.202881
329.880859	3231.829834
328.568359	3254.729980
327.253906	3373.279297
325.941406	3403.364502
324.626953	3332.402344
323.314453	3412.993164
322.000000	3471.912598
320.685547	3482.122559
319.371094	3371.530762
318.056641	3444.847168
316.742188	3584.823730
315.425781	3596.808350
314.111328	3590.771484
312.794922	3555.914795
311.478516	3540.881836
310.162109	3565.470459
308.845703	3611.655273
307.529297	3537.216553
306.212891	3513.197754
304.896484	3550.369629
303.578125	3501.168701
302.261719	3642.662354
300.943359	3613.245850
299.625000	3544.279053
298.306641	3583.209961
296.988281	3582.580322
295.669922	3563.978271
294.351563	3523.819092
293.033203	3578.895264
291.712891	3700.416016
290.392578	3581.229492
289.074219	3612.922363
287.753906	3632.036377
286.433594	3525.489746
285.113281	3630.759521
283.791016	3411.201416
282.470703	3423.160400
281.150391	3325.693848
279.828125	3271.304688
278.505859	3303.006348
277.185547	3322.146973
275.863281	3296.467285
274.541016	3283.342041
273.216797	3295.307861
271.894531	3312.644043
270.572266	3485.814941
269.248047	3390.281006
267.923828	3389.684570
266.601563	3523.362793
265.277344	3601.503418
263.953125	3472.011719
262.628906	3485.715820
261.302734	3649.696777
259.978516	3849.394775
258.654297	3737.834229
257.328125	3848.040039
256.001953	4008.265625
254.675781	3934.272949
253.349609	4017.577881
252.023438	4124.082520
250.697266	4080.479492
249.371094	4113.699707
248.042969	4093.330322
246.716797	4090.824219
245.388672	4157.944824
244.060547	4146.502930
242.732422	4036.908447
241.404297	4036.197754
240.076172	3973.045654
238.748047	3779.704102
237.417969	3812.923340
236.089844	3674.953613
234.759766	3422.934570
233.429688	3342.120850
232.101563	3147.277588
230.771484	3103.959229
229.439453	3007.210205
228.109375	2890.901855
226.779297	2804.909424
225.447266	2758.120117
224.117188	2636.575928
222.785156	2605.852295
221.453125	2564.461426
220.121094	2467.925781
218.789063	2437.247559
217.457031	2383.457031
216.125000	2368.809814
214.791016	2295.491455
213.458984	2289.753418
212.125000	2182.703125
210.791016	2189.426758
209.457031	2213.916260
208.123047	2167.336914
206.789063	2115.445068
205.455078	2045.812866
204.119141	2160.863770
202.785156	2119.652100
201.449219	2073.129883
200.113281	2097.608887
198.777344	2054.655518
197.441406	2125.253174
196.105469	2092.951904
194.769531	2000.367065
193.433594	2078.029053
192.095703	1992.570435
190.757813	2098.565186
189.421875	1908.577515
188.083984	2002.146851
186.746094	1945.105591
185.408203	1992.584351
184.070313	1914.314331
182.730469	1908.664795
181.392578	1963.205566
180.052734	1957.549316
178.712891	1987.287354
177.375000	2018.784180
176.035156	1903.442871
174.695313	1885.420044
173.353516	1946.980347
172.013672	1916.579468
170.673828	1916.241089
169.332031	1894.693481
167.990234	1874.920532
166.650391	1934.661133
165.308594	1923.720459
163.966797	1916.315918
162.625000	1937.168091
161.281250	1813.236328
159.939453	1842.925293
158.595703	1844.364746
157.253906	1814.040283
155.910156	1850.770508
154.566406	1855.735474
153.222656	1851.880249
151.878906	1747.513428
150.535156	1801.859863
149.189453	1805.067017
147.845703	1721.912842
146.500000	1698.700806
145.154297	1698.400635
143.810547	1745.661377
142.464844	1799.950073
141.117188	1688.695679
139.771484	1589.804688
138.425781	1686.338501
137.078125	1742.359009
135.732422	1722.694824
134.384766	1697.759521
133.037109	1602.472046
131.689453	1690.124390
130.341797	1617.730957
128.994141	1626.235352
127.646484	1545.089844
126.296875	1627.417725
124.949219	1604.286743
123.599609	1584.677612
122.250000	1617.771606
120.900391	1642.072632
119.550781	1571.545410
118.201172	1569.511841
116.851563	1511.309326
115.500000	1549.651611
114.150391	1549.377441
112.798828	1457.876343
111.447266	1461.126465
110.095703	1338.105835
108.744141	1357.156860
107.392578	1188.616943
106.041016	1095.507446
104.689453	969.133423
103.335938	821.777832
