#Wave		#Intensity
3204.356445	407.405884
3203.525391	381.764954
3202.693359	524.130005
3201.861328	367.401459
3201.028320	415.751678
3200.196289	355.894379
3199.363281	341.603516
3198.531250	381.395721
3197.698242	358.567993
3196.865234	386.963379
3196.032227	398.280396
3195.199219	386.838562
3194.365234	386.776184
3193.532227	372.496399
3192.698242	372.436310
3191.864258	361.005981
3191.031250	352.421448
3190.197266	414.880920
3189.362305	392.084473
3188.528320	394.861969
3187.694336	340.833038
3186.859375	349.297516
3186.024414	374.795441
3185.189453	360.540466
3184.354492	388.866760
3183.519531	368.938141
3182.684570	349.015930
3181.849609	383.004486
3181.013672	357.413208
3180.177734	388.553253
3179.341797	354.462219
3178.506836	343.064087
3177.669922	331.669617
3176.833984	382.633972
3175.998047	371.236786
3175.161133	357.009827
3174.325195	373.949982
3173.488281	317.239716
3172.651367	404.981781
3171.814453	413.411224
3170.977539	351.059723
3170.139648	376.479126
3169.302734	379.248627
3168.464844	348.060120
3167.626953	373.467682
3166.789063	398.867004
3165.951172	353.548462
3165.113281	342.179718
3164.275391	364.744293
3163.436523	375.993530
3162.598633	330.707886
3161.759766	375.872223
3160.920898	398.416809
3160.082031	344.673828
3159.243164	338.968719
3158.404297	395.399719
3157.564453	369.921478
3156.725586	398.095520
3155.885742	369.802124
3155.045898	372.564911
3154.206055	366.860779
3153.366211	363.980042
3152.526367	346.994751
3151.685547	411.813477
3150.845703	363.803894
3150.004883	352.466248
3149.164063	380.602142
3148.323242	349.533691
3147.482422	360.750763
3146.641602	391.689575
3145.800781	414.166016
3144.958984	371.844177
3144.118164	405.582733
3143.276367	388.620728
3142.434570	394.189270
3141.592773	405.386414
3140.750977	329.323303
3139.908203	337.712982
3139.066406	351.727600
3138.223633	365.737671
3137.380859	351.614075
3136.538086	345.932404
3135.695313	345.876587
3134.852539	345.820770
3134.009766	365.442627
3133.166016	348.519806
3132.323242	365.324677
3131.479492	373.694916
3130.635742	393.299591
3129.791992	339.868347
3128.948242	356.663757
3128.104492	367.837891
3127.259766	339.703827
3126.416016	350.877075
3125.571289	412.564819
3124.726563	336.733246
3123.881836	378.763763
3123.037109	356.260986
3122.192383	378.641510
3121.346680	367.363190
3120.501953	350.480804
3119.656250	356.031006
3118.810547	372.791199
3117.964844	336.298676
3117.119141	411.899353
3116.273438	344.594849
3115.427734	341.738098
3114.581055	364.088348
3113.734375	369.630035
3112.888672	361.171051
3112.041992	380.708008
3111.194336	389.043152
3110.347656	400.174042
3109.500977	374.927704
3108.653320	363.677124
3107.806641	372.009613
3106.958984	335.593567
3106.111328	374.685638
3105.263672	366.238037
3104.416016	377.359924
3103.567383	385.683441
3102.719727	360.471954
3101.871094	366.001556
3101.022461	363.149017
3100.174805	388.227417
3099.325195	329.521118
3098.476563	351.804749
3097.627930	357.331238
3096.778320	418.679932
3095.929688	340.471344
3095.080078	393.432037
3094.230469	365.470032
3093.380859	359.832214
3092.531250	384.874634
3091.681641	351.350525
3090.831055	401.478638
3089.981445	381.900635
3089.130859	392.987518
3088.280273	359.483734
3087.429688	409.578094
3086.579102	381.653992
3085.728516	342.597504
3084.876953	370.391144
3084.025391	392.606903
3083.174805	389.759491
3082.323242	345.159790
3081.471680	353.453339
3080.620117	425.745117
3079.767578	370.032379
3078.916016	350.500366
3078.063477	344.881165
3077.211914	339.263763
3076.359375	405.938599
3075.506836	375.293549
3074.654297	383.571442
3073.800781	383.509491
3072.948242	341.768463
3072.095703	422.279785
3071.242188	361.102020
3070.388672	377.707245
3069.535156	380.423035
3068.681641	333.163422
3067.828125	352.541016
3066.973633	358.035004
3066.120117	371.852234
3065.265625	385.665009
3064.411133	391.150940
3063.556641	368.898376
3062.702148	396.571045
3061.847656	390.961426
3060.992188	410.304535
3060.137695	360.344421
3059.282227	376.914795
3058.426758	360.227997
3057.571289	365.710876
3056.715820	354.571442
3055.860352	420.985535
3055.004883	365.533630
3054.148438	359.937103
3053.291992	351.574036
3052.436523	370.892212
3051.580078	384.669281
3050.723633	392.908020
3049.866211	401.144073
3049.009766	370.652557
3048.153320	409.311279
3047.295898	376.063110
3046.438477	420.237915
3045.581055	417.405731
3044.723633	389.699982
3043.866211	359.239807
3043.007813	395.099915
3042.150391	361.886200
3041.291992	370.113831
3040.433594	353.484436
3039.576172	364.471924
3038.716797	361.652313
3037.858398	350.552856
3037.000000	372.574677
3036.140625	364.236389
3035.282227	419.355927
3034.422852	369.635620
3033.563477	430.252502
3032.704102	341.940308
3031.844727	374.970673
3030.984375	355.613251
3030.125000	361.068268
3029.264648	358.254089
3028.404297	407.792572
3027.543945	385.687378
3026.683594	363.589325
3025.823242	418.610962
3024.962891	379.993256
3024.101563	357.906799
3023.241211	379.870422
3022.379883	399.074677
3021.518555	440.287079
3020.657227	385.188934
3019.795898	429.141144
3018.933594	401.567169
3018.072266	418.002350
3017.209961	384.939911
3016.347656	343.640778
3015.485352	395.810181
3014.623047	382.005005
3013.760742	398.430023
3012.898438	362.650055
3012.035156	354.350708
3011.172852	365.279266
3010.309570	356.982178
3009.446289	365.161163
3008.583008	392.553406
3007.719727	397.979309
3006.855469	373.216797
3005.992188	364.925049
3005.127930	373.096100
3004.263672	348.349609
3003.400391	340.065857
3002.535156	405.819427
3001.670898	356.405396
3000.806641	397.464783
2999.941406	328.883179
2999.077148	402.816772
2998.211914	402.751617
2997.346680	408.165222
2996.481445	386.187836
2995.616211	375.171478
2994.750000	361.420624
2993.884766	375.050140
2993.018555	383.200958
2992.152344	363.982025
2991.287109	402.230865
2990.419922	355.656830
2989.553711	407.571533
2988.687500	380.156250
2987.820313	377.360260
2986.954102	349.958710
2986.086914	385.439026
2985.219727	382.643524
2984.352539	404.443451
2983.485352	420.771729
2982.617188	368.798676
2981.750000	371.470398
2980.881836	371.410339
2980.013672	368.619720
2979.145508	368.560089
2978.277344	335.744873
2977.409180	376.628448
2976.541016	371.110016
2975.671875	376.506622
2974.803711	373.717834
2973.934570	414.568756
2973.065430	376.323914
2972.196289	368.083405
2971.326172	340.762817
2970.457031	395.220917
2969.587891	392.431763
2968.717773	354.221375
2967.847656	367.785736
2966.977539	381.345734
2966.107422	373.113647
2965.237305	367.607269
2964.366211	348.489746
2963.496094	391.987549
2962.625000	400.089203
2961.753906	427.237000
2960.882813	375.472412
2960.011719	375.411652
2959.140625	394.390442
2958.269531	388.887634
2957.397461	410.577148
2956.525391	410.510681
2955.654297	418.598785
2954.782227	429.401978
2953.909180	364.117432
2953.037109	391.227051
2952.165039	363.999603
2951.291992	391.100433
2950.418945	334.010895
2949.546875	409.979523
2948.673828	333.902802
2947.799805	379.990448
2946.926758	369.073822
2946.053711	407.000854
2945.179688	377.093079
2944.306641	406.869110
2943.432617	371.546967
2942.558594	374.198425
2941.683594	368.715546
2940.809570	349.680939
2939.935547	390.278351
2939.060547	376.666016
2938.185547	414.536499
2937.311523	400.924652
2936.436523	373.774628
2935.560547	373.714111
2934.685547	411.560516
2933.810547	425.029877
2932.934570	365.412384
2932.058594	362.646912
2931.182617	413.999969
2930.306641	386.878479
2929.430664	378.700836
2928.554688	384.048676
2927.677734	346.128662
2926.801758	410.961243
2925.924805	389.268677
2925.047852	405.422546
2924.170898	448.594971
2923.293945	367.464081
2922.416016	386.315125
2921.539063	415.964294
2920.661133	391.591278
2919.784180	394.228058
2918.906250	396.863983
2918.028320	361.708588
2917.149414	429.122040
2916.271484	388.575897
2915.392578	388.512970
2914.514648	410.030609
2913.635742	407.267090
2912.756836	364.053986
2911.877930	374.780060
2910.999023	385.502686
2910.119141	415.089478
2909.240234	406.937408
2908.360352	401.482483
2907.480469	361.006317
2906.600586	352.866913
2905.720703	412.060272
2904.840820	376.987518
2903.960938	409.234467
2903.080078	417.243866
2902.199219	384.878754
2901.319336	363.288239
2900.438477	371.301147
2899.556641	433.114502
2898.675781	414.216339
2897.794922	411.459961
2896.913086	379.127167
2896.031250	392.507782
2895.150391	376.316376
2894.268555	411.193420
2893.385742	341.262115
2892.503906	386.880188
2891.622070	373.386353
2890.739258	389.440643
2889.856445	384.006805
2888.973633	373.204895
2888.090820	408.042816
2887.208008	413.344818
2886.325195	394.492493
2885.441406	437.359589
2884.558594	402.412933
2883.674805	391.618469
2882.791016	410.328186
2881.907227	367.358521
2881.023438	364.617981
2880.138672	436.934570
2879.254883	340.378510
2878.370117	418.035004
2877.485352	375.098816
2876.601563	393.789948
2875.715820	415.153381
2874.831055	382.950409
2873.946289	364.145569
2873.060547	385.503418
2872.175781	420.237701
2871.290039	420.169586
2870.404297	363.909576
2869.518555	403.981171
2868.631836	385.191132
2867.746094	395.826721
2866.859375	403.784790
2865.973633	406.392975
2865.086914	427.712738
2864.200195	406.261230
2863.313477	414.212402
2862.425781	414.145264
2861.539063	411.406677
2860.651367	389.971680
2859.764648	421.955719
2858.876953	413.876801
2857.989258	424.488678
2857.101563	421.750549
2856.212891	397.662323
2855.325195	429.619141
2854.436523	400.201385
2853.547852	306.771332
2852.659180	440.078827
2851.770508	405.340210
2850.881836	397.275665
2849.993164	386.547852
2849.103516	386.485199
2848.214844	351.777740
2847.325195	391.688965
2846.435547	383.633118
2845.545898	418.198822
2844.656250	391.498474
2843.765625	404.749115
2842.875977	370.072388
2841.985352	396.631989
2841.094727	412.536835
2840.204102	364.570190
2839.313477	380.475067
2838.422852	401.695251
2837.531250	398.970306
2836.640625	382.949371
2835.749023	364.274689
2834.857422	441.312347
2833.965820	388.079224
2833.074219	382.701019
2832.182617	353.409576
2831.290039	371.949738
2830.398438	382.514832
2829.505859	358.549500
2828.613281	358.491333
2827.720703	369.053436
2826.828125	400.849121
2825.934570	387.513123
2825.041992	411.334167
2824.148438	413.920807
2823.254883	419.159454
2822.361328	424.396423
2821.467773	368.634583
2820.574219	405.697418
2819.680664	392.375671
2818.786133	410.867310
2817.891602	413.450989
2816.998047	370.985565
2816.103516	381.523254
2815.208008	386.759430
2814.313477	365.507813
2813.418945	407.819366
2812.523438	346.854980
2811.627930	405.039734
2810.732422	394.386444
2809.836914	412.847687
2808.941406	407.488617
2808.045898	407.422516
2807.149414	388.840210
2806.253906	409.935028
2805.357422	441.600281
2804.460938	362.212097
2803.564453	380.657501
2802.667969	351.522461
2801.770508	375.248779
2800.874023	380.472229
2799.976563	393.619171
2799.079102	372.424805
2798.182617	404.054932
2797.284180	409.270264
2796.386719	385.443634
2795.489258	390.660278
2794.590820	435.462708
2793.692383	382.617249
2792.794922	393.108398
2791.896484	390.406708
2790.997070	406.168060
2790.098633	400.828064
2789.200195	416.582611
2788.300781	387.517120
2787.401367	369.003998
2786.501953	390.026611
2785.602539	416.312195
2784.703125	439.954742
2783.803711	384.568634
2782.903320	408.208649
2782.003906	392.343323
2781.103516	431.770874
2780.203125	400.112915
2779.302734	384.256592
2778.401367	426.297668
2777.500977	439.383636
2776.600586	402.483734
2775.699219	407.678741
2774.797852	370.795929
2773.896484	381.253052
2772.995117	391.706787
2772.093750	354.844482
2771.191406	396.835693
2770.289063	378.377869
2769.387695	396.706818
2768.485352	386.135315
2767.583008	407.083344
2766.680664	456.909698
2765.777344	388.572723
2764.875000	396.384796
2763.971680	401.569702
2763.068359	383.135010
2762.165039	369.953857
2761.261719	451.217926
2760.358398	393.440094
2759.455078	393.376190
2758.550781	395.934387
2757.646484	398.491730
2756.742188	401.048218
2755.837891	424.570313
2754.933594	400.917938
2754.029297	390.373016
2753.124023	374.592438
2752.219727	419.056335
2751.314453	424.225616
2750.409180	363.936920
2749.503906	384.820404
2748.598633	400.462280
2747.693359	410.865112
2746.787109	366.317017
2745.880859	374.105896
2744.975586	434.206207
2744.069336	410.598175
2743.163086	402.686920
2742.255859	420.922485
2741.349609	379.030060
2740.442383	386.809204
2739.536133	378.906921
2738.628906	391.908966
2737.721680	399.682190
2736.813477	386.557861
2735.906250	394.329407
2734.999023	383.821228
2734.090820	404.643677
2733.182617	394.137207
2732.274414	420.170715
2731.366211	388.790436
2730.458008	401.771790
2729.549805	396.489532
2728.640625	396.425110
2727.731445	365.069031
2726.823242	458.869354
2725.914063	380.591095
2725.004883	364.891052
2724.094727	377.861450
2723.185547	362.166931
2722.275391	408.999756
2721.365234	424.561310
2720.456055	385.428589
2719.545898	434.838593
2718.634766	416.544098
2717.724609	387.843628
2716.813477	395.588257
2715.903320	382.513275
2714.992188	413.671600
2714.081055	444.819763
2713.169922	431.743134
2712.258789	384.865021
2711.346680	392.602509
2710.435547	402.937042
2709.523438	402.871552
2708.611328	366.423553
2707.699219	405.338867
2706.787109	418.262482
2705.875000	371.439819
2704.961914	412.932343
2704.049805	412.865204
2703.136719	415.394287
2702.223633	402.347778
2701.310547	480.143463
2700.397461	415.191681
2699.483398	363.233643
2698.570313	409.868439
2697.656250	407.208099
2696.742188	401.955353
2695.828125	407.075653
2694.914063	407.009460
2694.000000	419.903229
2693.084961	396.510773
2692.170898	424.948944
2691.255859	471.512970
2690.340820	422.220428
2689.425781	372.943878
2688.510742	388.420013
2687.594727	409.069183
2686.679688	419.357147
2685.763672	429.641724
2684.847656	403.694031
2683.931641	393.278900
2683.015625	419.084320
2682.099609	395.737488
2681.182617	437.050659
2680.266602	411.122803
2679.349609	421.396942
2678.432617	410.989014
2677.515625	439.350739
2676.598633	377.263367
2675.681641	405.621307
2674.763672	377.140594
2673.846680	402.906586
2672.928711	410.587952
2672.010742	475.068512
2671.092773	405.291412
2670.173828	415.549652
2669.255859	381.933807
2668.336914	446.376984
2667.418945	435.985168
2666.500000	402.382355
2665.581055	386.843140
2664.662109	384.201660
2663.742188	420.232758
2662.823242	451.096680
2661.903320	420.095978
2660.983398	409.720154
2660.063477	440.570709
2659.143555	363.218475
2658.223633	412.095734
2657.303711	399.152771
2656.382813	393.938263
2655.461914	419.617554
2654.541016	427.270996
2653.620117	416.907440
2652.699219	380.816406
2651.778320	370.463745
2650.856445	406.414886
2649.935547	421.779694
2649.013672	413.996796
2648.091797	426.784332
2647.169922	413.862000
2646.248047	364.961700
2645.325195	400.878571
2644.403320	431.645111
2643.480469	429.005920
2642.557617	408.388245
2641.634766	392.913361
2640.711914	400.552307
2639.789063	397.919861
2638.865234	441.490784
2637.941406	392.657501
2637.018555	436.215057
2636.094727	438.709595
2635.170898	418.117065
2634.246094	394.966492
2633.322266	407.723694
2632.397461	420.476685
2631.473633	369.138916
2630.548828	422.902771
2629.624023	422.833893
2628.699219	374.083008
2627.773438	402.201813
2626.848633	471.293518
2625.922852	443.046173
2624.997070	445.534546
2624.071289	394.259460
2623.145508	432.590851
2622.219727	440.198273
2621.293945	406.861176
2620.367188	404.236450
2619.440430	429.751007
2618.513672	388.759003
2617.586914	429.610992
2616.660156	411.643463
2615.733398	437.140137
2614.805664	411.509338
2613.878906	360.331451
2612.951172	447.147003
2612.023438	426.636475
2611.095703	401.024017
2610.166992	380.527679
2609.239258	408.553741
2608.310547	434.017609
2607.382813	416.078491
2606.454102	393.040771
2605.525391	423.598267
2604.596680	431.183380
2603.666992	413.256348
2602.738281	408.087921
2601.808594	415.671814
2600.878906	392.656586
2599.949219	410.437714
2599.019531	428.213013
2598.089844	438.337128
2597.159180	405.140930
2596.229492	412.717834
2595.298828	415.197784
2594.368164	412.583282
2593.437500	389.598480
2592.506836	379.351044
2591.575195	450.565033
2590.644531	478.488251
2589.712891	424.970795
2588.781250	417.268555
2587.849609	404.480988
2586.917969	417.132507
2585.986328	450.124481
2585.053711	399.197876
2584.122070	429.639740
2583.189453	439.737030
2582.256836	414.251160
2581.324219	424.347626
2580.391602	444.603149
2579.458008	424.209259
2578.525391	396.202698
2577.591797	403.756134
2576.658203	426.540680
2575.724609	383.316315
2574.791016	406.096741
2573.857422	380.653625
2572.922852	400.889740
2571.989258	428.729858
2571.054688	385.540314
2570.120117	415.909851
2569.185547	403.163910
2568.250000	405.633362
2567.315430	397.962799
2566.379883	430.844849
2565.445313	418.104736
2564.509766	387.633881
2563.574219	405.302643
2562.638672	430.563812
2561.702148	453.284424
2560.766602	369.657715
2559.830078	384.786316
2558.893555	404.972168
2557.957031	412.498077
2557.020508	422.551788
2556.083984	427.542542
2555.146484	430.002197
2554.209961	419.815979
2553.272461	389.404297
2552.334961	462.658173
2551.397461	419.610535
2550.459961	429.651520
2549.521484	416.946655
2548.583984	389.086700
2547.645508	437.019592
2546.707031	406.639709
2545.768555	467.180573
2544.830078	421.656342
2543.891602	434.209900
2542.952148	406.374329
2542.012695	439.115509
2541.074219	456.706512
2540.134766	383.469940
2539.194336	416.198792
2538.254883	400.998810
2537.315430	451.365234
2536.375000	433.643280
2535.434570	413.406342
2534.494141	375.533478
2533.553711	430.911011
2532.613281	466.114197
2531.672852	380.387848
2530.731445	418.106445
2529.791016	418.038208
2528.849609	377.683685
2527.908203	448.111481
2526.966797	432.935913
2526.024414	417.765259
2525.083008	400.083344
2524.140625	394.986328
2523.198242	402.468109
2522.255859	425.037537
2521.313477	507.950073
2520.371094	382.157440
2519.428711	389.636414
2518.485352	454.920471
2517.541992	424.690643
2516.598633	419.596161
2515.655273	434.600494
2514.711914	419.459137
2513.768555	419.390625
2512.824219	406.767578
2511.879883	421.764160
2510.936523	444.286102
2509.992188	386.490875
2509.046875	373.881378
2508.102539	391.382355
2507.158203	406.369110
2506.212891	423.859039
2505.267578	423.789795
2504.322266	386.112244
2503.376953	406.103668
2502.431641	388.492493
2501.485352	438.548920
2500.540039	410.915833
2499.593750	455.941864
2498.647461	385.733917
2497.701172	385.670898
2496.754883	403.135529
2495.807617	415.587372
2494.861328	433.041351
2493.914063	417.954285
2492.966797	432.899872
2492.019531	427.825317
2491.072266	415.247955
2490.125000	467.702881
2489.176758	412.611572
2488.229492	392.541992
2487.281250	459.974030
2486.333008	409.909851
2485.384766	404.844788
2484.436523	422.269073
2483.487305	412.207153
2482.538086	427.126678
2481.589844	434.549103
2480.640625	416.999054
2479.691406	429.413879
2478.742188	429.343689
2477.791992	446.743927
2476.842773	451.661652
2475.892578	391.708771
2474.942383	416.590271
2473.992188	399.063141
2473.041992	448.872650
2472.090820	481.212555
2471.140625	393.881622
2470.189453	451.145050
2469.238281	403.721252
2468.287109	426.080536
2467.335938	381.167633
2466.384766	433.413879
2465.433594	395.985870
2464.481445	435.762238
2463.529297	410.794342
2462.577148	368.409821
2461.625000	435.548492
2460.672852	428.011963
2459.719727	440.382141
2458.767578	412.946198
2457.814453	402.929779
2456.861328	450.113373
2455.908203	420.202850
2454.955078	427.592133
2454.000977	439.950165
2453.047852	444.848602
2452.093750	400.049774
2451.139648	412.406219
2450.185547	437.178436
2449.231445	419.721985
2448.277344	407.237549
2447.322266	407.170929
2446.368164	409.586670
2445.413086	429.375183
2444.458008	431.786469
2443.502930	424.272461
2442.546875	441.568085
2441.591797	431.574585
2440.635742	431.503967
2439.680664	423.994873
2438.724609	404.092712
2437.768555	401.547913
2436.811523	396.525635
2435.855469	384.071350
2434.898438	418.693146
2433.942383	445.872406
2432.985352	378.929504
2432.028320	391.248810
2431.070313	440.701843
2430.113281	448.056061
2429.156250	410.857086
2428.198242	383.568817
2427.240234	442.887634
2426.282227	415.603058
2425.324219	452.636353
2424.365234	430.305115
2423.407227	432.707306
2422.448242	407.914398
2421.489258	454.811890
2420.530273	392.952454
2419.571289	420.069061
2418.612305	422.470886
2417.652344	444.633423
2416.693359	422.332581
2415.733398	454.365356
2414.773438	412.318420
2413.813477	417.188049
2412.853516	409.715271
2411.892578	387.438354
2410.932617	402.179047
2409.971680	431.716614
2409.010742	439.045563
2408.049805	414.312225
2407.087891	419.175873
2406.126953	426.503235
2405.166016	414.108734
2404.205078	446.079803
2403.242188	438.614380
2402.281250	396.659271
2401.318359	458.177277
2400.355469	428.547241
2399.392578	413.701996
2398.431641	448.103760
2397.468750	386.487732
2396.505859	383.963135
2395.542969	383.900238
2394.578125	391.218842
2393.615234	423.135956
2392.652344	396.010071
2391.687500	393.485901
2390.724609	418.010284
2389.759766	467.111420
2388.796875	412.957184
2387.832031	407.974182
2386.867188	442.309174
2385.902344	410.297363
2384.937500	395.491333
2383.972656	395.426544
2383.007813	446.930695
2382.042969	410.028534
2381.078125	397.687073
2380.111328	382.895172
2379.146484	395.102692
2378.179688	439.203674
2377.214844	426.865448
2376.248047	407.172729
2375.281250	380.129089
2374.314453	424.203583
2373.347656	443.747192
2372.380859	463.284393
2371.414063	446.052582
2370.447266	450.880341
2369.480469	409.155853
2368.511719	445.833282
2367.544922	460.455597
2366.576172	428.545319
2365.609375	426.026642
2364.640625	440.644989
2363.671875	391.620209
2362.703125	420.922729
2361.736328	423.300537
2360.767578	420.784729
2359.796875	425.607758
2358.828125	430.429230
2357.859375	440.139526
2356.890625	425.398468
2355.919922	430.217560
2354.951172	415.482910
2353.980469	452.069031
2353.011719	393.357727
2352.041016	439.706696
2351.070313	466.501160
2350.099609	488.402771
2349.128906	395.541382
2348.158203	412.565002
2347.187500	446.668701
2346.216797	422.191345
2345.244141	366.001801
2344.273438	444.009369
2343.302734	365.881775
2342.330078	404.842743
2341.357422	448.667725
2340.386719	443.718109
2339.414063	416.831604
2338.441406	402.139954
2337.468750	394.763550
2336.496094	431.244965
2335.523438	462.842407
2334.550781	431.103485
2333.576172	457.820099
2332.603516	423.657593
2331.628906	457.669891
2330.656250	408.914520
2329.681641	396.679352
2328.708984	435.545715
2327.734375	394.116364
2326.759766	467.024231
2325.785156	493.699799
2324.810547	452.281250
2323.835938	437.619690
2322.861328	393.793091
2321.884766	425.323975
2320.910156	422.824127
2319.935547	417.895477
2318.958984	425.114594
2317.984375	405.614197
2317.007813	449.259338
2316.031250	412.765137
2315.054688	441.828979
2314.078125	417.484100
2313.101563	436.830261
2312.125000	456.170044
2311.148438	422.130615
2310.171875	426.912598
2309.193359	436.543488
2308.216797	446.171204
2307.240234	412.155701
2306.261719	419.360199
2305.283203	445.951477
2304.306641	404.682983
2303.328125	416.730804
2302.349609	421.507294
2301.371094	431.126312
2300.392578	423.790527
2299.414063	421.299683
2298.433594	409.126190
2297.455078	433.263672
2296.476563	423.512238
2295.496094	411.344330
2294.517578	433.050232
2293.537109	440.235748
2292.556641	447.418884
2291.576172	379.639069
2290.595703	444.854248
2289.615234	435.112030
2288.634766	459.209473
2287.654297	408.387634
2286.673828	422.817139
2285.693359	422.747681
2284.710938	454.077209
2283.730469	400.874634
2282.748047	468.415070
2281.767578	393.500580
2280.785156	412.745667
2279.802734	480.250854
2278.820313	439.152222
2277.837891	383.591949
2276.855469	414.886627
2275.873047	465.464874
2274.890625	429.218323
2273.906250	433.969666
2272.923828	455.593292
2271.941406	467.569153
2270.957031	445.804535
2269.972656	416.818970
2268.990234	404.705658
2268.005859	419.090546
2267.021484	392.531799
2266.037109	414.137238
2265.052734	397.217529
2264.068359	430.850006
2263.083984	418.746246
2262.097656	428.302185
2261.113281	428.231781
2260.126953	432.972198
2259.142578	399.230927
2258.156250	425.616028
2257.171875	413.524963
2256.185547	471.148651
2255.199219	398.968475
2254.212891	420.530121
2253.226563	430.071533
2252.240234	432.403046
2251.253906	434.733795
2250.265625	417.852173
2249.279297	429.788727
2248.291016	424.916748
2247.304688	434.447937
2246.316406	436.776367
2245.330078	441.503479
2244.341797	441.430878
2243.353516	424.567474
2242.365234	491.649811
2241.376953	376.469879
2240.388672	400.382996
2239.400391	412.302673
2238.410156	414.631592
2237.421875	433.733948
2236.431641	419.287048
2235.443359	443.173401
2234.453125	426.334534
2233.464844	409.501190
2232.474609	450.137756
2231.484375	450.063721
2230.494141	404.511993
2229.503906	437.949799
2228.513672	447.448822
2227.523438	478.476166
2226.531250	418.597748
2225.541016	485.493500
2224.548828	461.501617
2223.558594	427.954376
2222.566406	427.883972
2221.576172	413.473419
2220.583984	420.574280
2219.591797	446.786621
2218.599609	437.157745
2217.607422	463.358704
2216.615234	463.282440
2215.621094	436.941925
2214.628906	410.610077
2213.636719	408.155609
2212.642578	417.634338
2211.650391	467.673492
2210.656250	446.125244
2209.662109	438.895874
2208.669922	400.665070
2207.675781	443.520416
2206.681641	431.526794
2205.687500	436.223206
2204.693359	438.534729
2203.697266	443.228424
2202.703125	433.625244
2201.708984	462.139801
2200.712891	438.246002
2199.718750	409.597290
2198.722656	426.196747
2197.726563	426.126556
2196.732422	423.676178
2195.736328	440.265106
2194.740234	406.880737
2193.744141	409.192749
2192.746094	435.290344
2191.750000	430.462158
2190.753906	449.414093
2189.757813	416.055634
2188.759766	435.003632
2187.763672	415.918579
2186.765625	477.633514
2185.767578	446.668182
2184.769531	475.100647
2183.771484	467.897064
2182.773438	455.946381
2181.775391	387.015717
2180.777344	432.056763
2179.779297	401.129486
2178.781250	439.033905
2177.781250	419.979431
2176.783203	386.696991
2175.783203	457.792786
2174.785156	493.291229
2173.785156	410.217896
2172.785156	431.487610
2171.785156	410.082703
2170.785156	421.865295
2169.785156	454.970703
2168.785156	462.003479
2167.785156	409.812469
2166.783203	402.639496
2165.783203	423.885834
2164.781250	416.712921
2163.781250	421.378815
2162.779297	449.712250
2161.777344	459.104187
2160.777344	440.099518
2159.775391	406.906647
2158.773438	447.050446
2157.769531	409.137451
2156.767578	437.444794
2155.765625	399.545868
2154.763672	468.029816
2153.759766	430.138306
2152.757813	430.067383
2151.753906	441.809540
2150.750000	418.114410
2149.748047	446.387543
2148.744141	458.121185
2147.740234	422.629730
2146.736328	424.920715
2145.732422	429.571198
2144.728516	434.220154
2143.722656	448.305542
2142.718750	422.281372
2141.712891	434.005341
2140.708984	455.158783
2139.703125	452.725769
2138.699219	388.997040
2137.693359	419.576080
2136.687500	492.567047
2135.681641	440.645172
2134.675781	426.436462
2133.669922	409.876831
2132.664063	407.453979
2131.656250	421.515778
2130.650391	430.864044
2129.644531	419.022644
2128.636719	407.185150
2127.628906	409.471252
2126.623047	421.168182
2125.615234	451.681274
2124.607422	449.254608
2123.599609	435.070099
2122.591797	425.592957
2121.583984	451.383209
2120.574219	432.504181
2119.566406	453.584412
2118.558594	462.908722
2117.548828	458.133514
2116.541016	415.775635
2115.531250	486.165833
2114.521484	474.344391
2113.511719	450.787567
2112.503906	455.408081
2111.494141	464.721222
2110.482422	441.177612
2109.472656	389.486145
2108.462891	424.610565
2107.453125	452.686798
2106.441406	440.886353
2105.431641	429.089783
2104.419922	419.641479
2103.408203	426.604126
2102.398438	440.595245
2101.386719	426.463287
2100.375000	391.250580
2099.363281	459.116486
2098.351563	463.724762
2097.339844	451.939880
2096.326172	433.135101
2095.314453	411.995605
2094.300781	465.759003
2093.289063	442.280975
2092.275391	442.207916
2091.263672	442.134888
2090.250000	432.706055
2089.236328	437.311707
2088.222656	451.268555
2087.208984	427.816071
2086.195313	430.082794
2085.181641	423.000702
2084.166016	464.990234
2083.152344	401.834717
2082.136719	439.142120
2081.123047	446.075989
2080.107422	427.321564
2079.091797	436.589783
2078.078125	471.532440
2077.062500	490.125977
2076.046875	438.706940
2075.031250	417.636017
2074.013672	438.561981
2072.998047	454.816254
2071.982422	480.393127
2070.964844	415.028381
2069.949219	470.909424
2068.931641	410.229523
2067.916016	473.084229
2066.898438	459.025574
2065.880859	389.058899
2064.863281	447.227295
2063.845703	447.153381
2062.828125	419.136993
2061.810547	398.114319
2060.791016	428.309509
2059.773438	418.929169
2058.753906	470.053894
2057.736328	404.830963
2056.716797	439.657471
2055.699219	427.955566
2054.679688	446.488495
2053.660156	444.089600
2052.640625	437.042084
2051.621094	434.645508
2050.601563	413.658325
2049.580078	425.207611
2048.560547	459.984619
2047.541016	443.649139
2046.519531	406.417603
2045.500000	424.926392
2044.478516	410.926422
2043.457031	457.283142
2042.435547	450.244934
2041.414063	466.413727
2040.392578	422.255005
2039.371094	440.742767
2038.349609	419.796021
2037.328125	401.175110
2036.306641	456.753906
2035.283203	491.450806
2034.261719	493.687256
2033.238281	405.544495
2032.214844	410.111420
2031.191406	437.843140
2030.169922	472.514404
2029.146484	437.698242
2028.121094	412.155548
2027.097656	407.457153
2026.074219	418.963287
2025.050781	402.693634
2024.025391	428.080414
2023.001953	446.518097
2021.976563	458.010101
2020.953125	409.365509
2019.927734	427.797089
2018.902344	434.662384
2017.876953	418.408875
2016.851563	406.783295
2015.826172	436.757477
2014.800781	441.306183
2013.775391	445.853363
2012.748047	420.372437
2011.722656	427.230896
2010.695313	399.452484
2009.669922	450.175354
2008.642578	466.258301
2007.615234	422.332367
2006.587891	454.566681
2005.560547	429.113708
2004.533203	440.576080
2003.505859	422.052734
2002.478516	445.041992
2001.451172	408.079742
2000.421875	428.758545
1999.394531	444.820923
1998.365234	419.398987
1997.335938	442.369598
1996.308594	472.243469
1995.279297	426.100342
1994.250000	412.212585
1993.220703	400.631897
1992.191406	418.982330
1991.162109	437.326691
1990.130859	446.459595
1989.101563	430.278931
1988.072266	430.207642
1987.041016	446.237732
1986.009766	466.862122
1984.980469	423.095551
1983.949219	418.427368
1982.917969	404.566010
1981.886719	397.604095
1980.855469	429.708923
1979.824219	448.017944
1978.792969	457.132294
1977.759766	401.934143
1976.728516	434.016937
1975.695313	466.089081
1974.664063	484.376831
1973.630859	440.686920
1972.597656	417.665222
1971.564453	417.596008
1970.531250	422.114990
1969.498047	483.975525
1968.464844	399.041626
1967.431641	442.541779
1966.398438	414.957397
1965.363281	456.148254
1964.330078	389.609802
1963.294922	389.545197
1962.261719	421.555481
1961.226563	396.288086
1960.191406	439.738129
1959.156250	409.896210
1958.121094	464.777283
1957.085938	441.808563
1956.050781	432.580170
1955.015625	443.950470
1953.980469	423.284607
1952.943359	468.967316
1951.908203	425.431488
1950.871094	420.787170
1949.833984	418.430847
1948.796875	406.930817
1947.761719	397.720337
1946.724609	415.937317
1945.687500	420.438293
1944.648438	418.083923
1943.611328	397.456482
1942.574219	420.229095
1941.537109	422.442841
1940.498047	442.920624
1939.458984	415.454529
1938.421875	399.409241
1937.382813	440.418243
1936.343750	387.868805
1935.304688	431.147278
1934.265625	417.390808
1933.226563	419.601990
1932.187500	414.972198
1931.148438	451.378357
1930.107422	423.951721
1929.068359	442.112823
1928.027344	403.304047
1926.988281	414.627960
1925.947266	421.392548
1924.906250	455.483887
1923.865234	425.806763
1922.824219	409.799408
1921.783203	425.665405
1920.742188	414.215179
1919.701172	368.635834
1918.658203	457.305573
1917.617188	379.887299
1916.574219	413.940186
1915.533203	447.981750
1914.490234	413.802734
1913.447266	434.193420
1912.404297	400.028015
1911.361328	434.049225
1910.318359	449.882080
1909.275391	413.459290
1908.232422	424.747528
1907.189453	431.489960
1906.144531	406.441467
1905.101563	424.535919
1904.056641	451.703827
1903.013672	406.238983
1901.968750	390.287689
1900.923828	446.941315
1899.878906	421.915100
1898.833984	417.309052
1897.789063	417.239716
1896.744141	442.109924
1895.697266	412.567383
1894.652344	405.699402
1893.605469	423.760803
1892.560547	421.424683
1891.513672	421.354675
1890.468750	405.429840
1889.421875	418.950043
1888.375000	441.522614
1887.328125	432.393890
1886.281250	439.112427
1885.232422	427.723999
1884.185547	450.280060
1883.138672	395.909119
1882.089844	450.130402
1881.042969	420.654968
1879.994141	382.144470
1878.945313	395.645966
1877.898438	395.580200
1876.849609	427.155579
1875.800781	422.565155
1874.751953	411.198273
1873.703125	417.906769
1872.652344	431.388763
1871.603516	413.251404
1870.552734	419.956207
1869.503906	379.252197
1868.453125	406.274078
1867.404297	412.976654
1866.353516	458.034515
1865.302734	412.839294
1864.251953	403.748352
1863.201172	410.446808
1862.150391	428.417175
1861.099609	437.363739
1860.046875	417.004303
1858.996094	439.471954
1857.943359	421.372253
1856.892578	425.808044
1855.839844	439.252686
1854.787109	389.631165
1853.734375	421.091949
1852.681641	416.518982
1851.628906	423.202942
1850.576172	391.622650
1849.523438	441.064789
1848.470703	409.492004
1847.416016	409.423889
1846.363281	384.614471
1845.308594	413.785309
1844.253906	404.722626
1843.201172	411.399536
1842.146484	395.597076
1841.091797	391.036591
1840.037109	424.675934
1838.982422	435.838226
1837.927734	424.534607
1836.871094	442.430664
1835.816406	410.920502
1834.759766	444.528503
1833.705078	430.986176
1832.648438	408.470978
1831.591797	435.330658
1830.537109	417.309387
1829.480469	446.401855
1828.423828	419.413330
1827.365234	421.585968
1826.308594	392.368408
1825.251953	403.511749
1824.195313	396.720490
1823.136719	445.956116
1822.078125	392.107147
1821.021484	387.561371
1819.962891	414.375244
1818.904297	416.545715
1817.845703	380.650421
1816.787109	407.451996
1815.728516	454.390015
1814.669922	405.078308
1813.611328	371.446381
1812.550781	445.213989
1811.492188	404.875916
1810.431641	393.625916
1809.373047	411.449463
1808.312500	404.673615
1807.251953	415.783173
1806.191406	424.653992
1805.130859	431.287201
1804.070313	415.575409
1803.009766	413.272247
1801.949219	433.305176
1800.886719	401.968750
1799.826172	404.134552
1798.763672	412.996887
1797.703125	417.392151
1796.640625	415.090912
1795.578125	412.790436
1794.515625	390.412354
1793.453125	410.422302
1792.390625	439.346283
1791.328125	430.353821
1790.263672	457.035370
1789.201172	421.294098
1788.138672	407.851685
1787.074219	436.751923
1786.009766	429.995270
1784.947266	396.509827
1783.882813	418.715851
1782.818359	420.872864
1781.753906	427.482117
1780.689453	396.245453
1779.625000	431.791016
1778.558594	445.071167
1777.494141	424.972076
1776.429688	424.901215
1775.363281	407.036438
1774.296875	431.431152
1773.232422	409.124176
1772.166016	415.725342
1771.099609	433.438080
1770.033203	388.918030
1768.966797	391.075165
1767.900391	426.556305
1766.832031	419.821320
1765.765625	395.321320
1764.699219	430.783936
1763.630859	410.730591
1762.562500	432.860016
1761.496094	408.374146
1760.427734	417.182220
1759.359375	419.331299
1758.291016	417.043030
1757.222656	385.922211
1756.154297	405.815979
1755.083984	434.571930
1754.015625	412.331085
1752.945313	401.179932
1751.876953	432.138306
1750.806641	438.713348
1749.736328	409.840546
1748.667969	398.697205
1747.597656	394.201447
1746.527344	447.277527
1745.457031	402.925354
1744.384766	409.498627
1743.314453	431.561615
1742.244141	442.553436
1741.171875	435.842346
1740.101563	398.165100
1739.029297	375.982056
1737.957031	422.356354
1736.884766	426.707672
1735.812500	362.530457
1734.740234	395.622650
1733.667969	406.605652
1732.595703	388.862213
1731.523438	393.215424
1730.449219	397.567169
1729.376953	390.875763
1728.302734	375.354706
1727.230469	395.160400
1726.156250	410.545013
1725.082031	428.131348
1724.007813	414.820892
1722.933594	412.545471
1721.859375	438.945648
1720.785156	388.148376
1719.710938	383.673492
1718.634766	434.316376
1717.560547	423.222412
1716.484375	405.520386
1715.408203	423.080994
1714.333984	387.759460
1713.257813	405.317169
1712.181641	407.451874
1711.105469	391.969269
1710.029297	409.517426
1708.951172	444.670410
1707.875000	413.782501
1706.798828	424.716370
1705.720703	444.447510
1704.644531	378.377197
1703.566406	426.702942
1702.488281	380.449860
1701.410156	400.175140
1700.332031	397.909851
1699.253906	408.833466
1698.175781	426.346436
1697.097656	397.710327
1696.017578	397.643829
1694.939453	428.329193
1693.859375	434.846161
1692.781250	397.444427
1691.701172	443.482605
1690.621094	384.140991
1689.541016	397.245087
1688.462891	416.927887
1687.380859	465.125946
1686.300781	397.045837
1685.220703	421.105255
1684.140625	414.456146
1683.058594	412.194305
1681.978516	442.815552
1680.896484	394.522125
1679.814453	374.733337
1678.734375	376.861694
1677.652344	455.663483
1676.570313	418.351776
1675.488281	405.142029
1674.404297	387.557526
1673.322266	400.628052
1672.240234	374.294708
1671.156250	404.870972
1670.074219	398.238861
1668.990234	391.608948
1667.906250	402.480377
1666.822266	422.096283
1665.738281	419.838989
1664.654297	404.464661
1663.570313	393.467316
1662.486328	395.587036
1661.402344	378.039246
1660.316406	432.596771
1659.232422	395.388428
1658.146484	410.610962
1657.062500	399.623535
1655.976563	397.373291
1654.890625	406.038788
1653.804688	408.153442
1652.718750	416.814209
1651.632813	394.925354
1650.546875	425.400818
1649.458984	418.786072
1648.373047	405.631073
1647.285156	416.465393
1646.199219	353.173279
1645.111328	374.911285
1644.023438	353.054993
1642.937500	390.038635
1641.849609	379.080231
1640.759766	396.442780
1639.671875	363.708008
1638.583984	372.357208
1637.496094	398.420776
1636.406250	394.000458
1635.318359	402.640198
1634.228516	402.572723
1633.138672	391.626770
1632.050781	417.665253
1630.960938	408.895355
1629.871094	415.350708
1628.781250	380.493164
1627.689453	417.385406
1626.599609	347.762909
1625.509766	375.955627
1624.417969	391.102142
1623.328125	378.002075
1622.236328	395.315216
1621.144531	358.330109
1620.052734	373.469391
1618.960938	412.484253
1617.869141	390.709045
1616.777344	375.451874
1615.685547	334.161255
1614.593750	405.699219
1613.500000	409.969513
1612.408203	425.082306
1611.314453	385.979401
1610.222656	381.578583
1609.128906	366.340729
1608.035156	413.960632
1606.941406	374.885773
1605.847656	426.821472
1604.753906	420.251190
1603.658203	405.019562
1602.564453	402.786133
1601.470703	396.223114
1600.375000	389.662292
1599.281250	385.268097
1598.185547	383.039429
1597.089844	374.320374
1595.994141	385.074280
1594.898438	389.335632
1593.802734	402.246002
1592.707031	419.476532
1591.609375	406.434845
1590.513672	406.366669
1589.417969	406.298492
1588.320313	378.139923
1587.222656	401.841309
1586.126953	373.692902
1585.029297	373.630219
1583.931641	414.595154
1582.833984	369.186859
1581.736328	369.124908
1580.636719	366.904694
1579.539063	422.948547
1578.441406	349.521271
1577.341797	401.234833
1576.244141	392.540222
1575.144531	414.038879
1574.044922	385.940216
1572.945313	422.522797
1571.845703	392.276764
1570.746094	381.435883
1569.646484	405.072937
1568.546875	368.382141
1567.445313	394.167328
1566.345703	439.325867
1565.244141	411.260559
1564.144531	344.453613
1563.042969	393.902679
1561.941406	389.532318
1560.839844	385.163391
1559.738281	378.644562
1558.636719	337.711426
1557.535156	363.462708
1556.431641	363.401672
1555.330078	386.990021
1554.228516	389.074615
1553.125000	395.456940
1552.021484	393.241669
1550.917969	384.581604
1549.816406	373.776306
1548.712891	362.974609
1547.609375	356.471375
1546.503906	407.940857
1545.400391	388.552063
1544.296875	382.047791
1543.191406	354.085907
1542.087891	351.880798
1540.982422	390.436249
1539.876953	413.964478
1538.773438	386.015961
1537.667969	375.230255
1536.562500	364.448120
1535.457031	377.247589
1534.349609	390.042725
1533.244141	364.264404
1532.138672	359.918427
1531.031250	379.136047
1529.925781	389.780548
1528.818359	389.715027
1527.710938	389.649536
1526.603516	376.740601
1525.496094	372.396820
1524.388672	387.313202
1523.281250	378.690094
1522.173828	367.930756
1521.064453	363.591370
1519.957031	412.713715
1518.847656	384.849640
1517.740234	365.545654
1516.630859	354.797516
1515.521484	365.422729
1514.412109	367.497894
1513.302734	348.209778
1512.193359	360.966583
1511.083984	341.686035
1509.974609	333.087860
1508.863281	347.975555
1507.753906	322.303497
1506.642578	379.870026
1505.531250	394.742310
1504.421875	401.076050
1503.310547	345.549927
1502.199219	356.155121
1501.087891	373.153656
1499.976563	383.750610
1498.863281	373.028107
1497.751953	375.096558
1496.638672	357.986450
1495.527344	364.317749
1494.414063	385.557983
1493.300781	345.026978
1492.189453	364.133850
1491.076172	359.814392
1489.962891	381.041046
1488.849609	389.490356
1487.734375	370.272766
1486.621094	408.508057
1485.507813	380.784546
1484.392578	382.847382
1483.277344	380.656342
1482.164063	361.456329
1481.048828	367.773041
1479.933594	374.087616
1478.818359	369.774353
1477.703125	378.211212
1476.587891	376.023102
1475.472656	392.952301
1474.355469	361.030518
1473.240234	380.079865
1472.123047	377.892853
1471.005859	337.499115
1469.890625	398.988373
1468.773438	356.482727
1467.656250	371.273651
1466.539063	358.483856
1465.421875	390.236206
1464.302734	349.881134
1463.185547	358.302704
1462.068359	360.362122
1460.949219	385.734467
1459.830078	336.931030
1458.712891	343.230377
1457.593750	351.645935
1456.474609	393.946503
1455.355469	364.233246
1454.236328	372.640961
1453.117188	349.292023
1451.996094	330.184082
1450.876953	347.058105
1449.755859	353.347168
1448.636719	351.172119
1447.515625	368.034027
1446.394531	380.660675
1445.273438	336.193573
1444.152344	397.444885
1443.031250	374.127075
1441.910156	361.383850
1440.789063	369.774933
1439.667969	378.163147
1438.544922	363.313385
1437.423828	378.035645
1436.300781	392.752930
1435.177734	344.128662
1434.054688	373.622711
1432.931641	388.333252
1431.808594	333.403839
1430.685547	381.872894
1429.562500	331.181946
1428.439453	358.544159
1427.314453	356.374969
1426.191406	375.290192
1425.066406	364.686829
1423.941406	373.055939
1422.816406	362.456482
1421.691406	362.395325
1420.566406	332.841888
1419.441406	402.291595
1418.316406	349.576630
1417.191406	370.572937
1416.064453	319.986267
1414.939453	389.391235
1413.812500	383.012146
1412.687500	353.490021
1411.560547	372.364136
1410.433594	365.991089
1409.306641	395.371918
1408.179688	365.867554
1407.052734	353.191803
1405.923828	382.559875
1404.796875	367.783936
1403.667969	336.202850
1402.541016	384.467102
1401.412109	340.290466
1400.283203	323.431366
1399.156250	323.376770
1398.027344	359.013580
1396.898438	367.349518
1395.767578	369.386292
1394.638672	388.209778
1393.509766	373.457703
1392.378906	373.394623
1391.250000	390.110535
1390.119141	329.231232
1388.988281	379.495453
1387.859375	375.238770
1386.728516	322.776581
1385.597656	347.869232
1384.464844	360.381927
1383.333984	326.802826
1382.203125	349.787506
1381.070313	326.692413
1379.939453	378.982941
1378.806641	345.423309
1377.673828	334.899353
1376.542969	362.048737
1375.410156	349.433075
1374.277344	345.189911
1373.144531	357.681824
1372.009766	349.255951
1370.876953	349.196930
1369.744141	330.322113
1368.609375	340.717743
1367.476563	378.279083
1366.341797	340.602570
1365.207031	330.098846
1364.072266	321.687531
1362.937500	327.898743
1361.802734	371.694946
1360.667969	365.368652
1359.533203	344.432190
1358.396484	361.070892
1357.261719	361.009827
1356.125000	348.430359
1354.988281	379.662292
1353.853516	356.655334
1352.716797	389.960632
1351.580078	335.684753
1350.443359	323.120087
1349.304688	343.908386
1348.167969	362.605682
1347.031250	354.209991
1345.892578	370.815979
1344.755859	366.587494
1343.617188	354.030304
1342.478516	324.819916
1341.339844	370.565155
1340.201172	370.502441
1339.062500	397.494354
1337.923828	362.054016
1336.785156	401.520721
1335.646484	366.091644
1334.505859	359.790558
1333.365234	355.570953
1332.226563	316.009583
1331.085938	363.765259
1329.945313	342.920624
1328.804688	324.161011
1327.664063	363.580597
1326.523438	384.291565
1325.382813	365.534424
1324.240234	394.544250
1323.099609	350.877319
1321.957031	321.756073
1320.816406	365.286987
1319.673828	329.947723
1318.531250	365.163330
1317.388672	331.910461
1316.246094	352.595154
1315.103516	344.240479
1313.960938	358.695923
1312.816406	360.708221
1311.673828	362.719818
1310.529297	323.284058
1309.386719	358.453003
1308.242188	331.461090
1307.097656	345.903900
1305.953125	370.696472
1304.808594	374.774872
1303.664063	331.236572
1302.519531	343.599731
1301.375000	320.776733
1300.228516	376.590149
1299.083984	322.736877
1297.937500	330.956116
1296.791016	341.240662
1295.644531	349.453949
1294.498047	386.608368
1293.351563	330.731873
1292.205078	345.142883
1291.058594	359.549011
1289.912109	373.950256
1288.763672	344.967438
1287.617188	332.517029
1286.468750	324.200775
1285.320313	353.050568
1284.173828	340.605072
1283.025391	354.994812
1281.876953	311.599579
1280.726563	332.179016
1279.578125	348.625671
1278.429688	334.128906
1277.279297	354.694000
1276.130859	352.572052
1274.980469	369.004059
1273.832031	319.474487
1272.681641	329.724182
1271.531250	362.635101
1270.380859	325.492218
1269.230469	317.198120
1268.078125	337.738098
1266.927734	317.090515
1265.777344	358.210358
1264.625000	362.266266
1263.474609	376.610687
1262.322266	323.048340
1261.169922	347.680939
1260.017578	329.109558
1258.865234	359.902496
1257.712891	326.941650
1256.560547	330.997955
1255.406250	394.663513
1254.253906	371.989471
1253.099609	320.555298
1251.947266	306.119446
1250.792969	349.204529
1249.638672	320.392120
1248.484375	355.246368
1247.330078	342.867493
1246.175781	344.862030
1245.021484	320.174683
1243.867188	350.901154
1242.710938	352.893280
1241.556641	342.576599
1240.400391	334.314392
1239.244141	311.700378
1238.087891	346.502777
1236.933594	334.144165
1235.775391	315.640900
1234.619141	366.819000
1233.462891	321.680481
1232.306641	360.548706
1231.148438	327.715912
1229.992188	348.139008
1228.833984	339.889771
1227.675781	311.171509
1226.519531	319.306000
1225.361328	315.158783
1224.203125	321.243683
1223.042969	327.326477
1221.884766	349.770752
1220.726563	325.170197
1219.566406	333.293945
1218.408203	341.414917
1217.248047	347.489075
1216.089844	318.818146
1214.929688	355.544464
1213.769531	333.010895
1212.609375	314.570343
1211.449219	314.516876
1210.287109	343.051025
1209.126953	338.909485
1207.964844	326.604218
1206.804688	340.835236
1205.642578	355.061371
1204.482422	359.081482
1203.320313	330.462006
1202.158203	354.880341
1200.996094	340.545654
1199.832031	328.254669
1198.669922	320.044861
1197.507813	358.715393
1196.343750	362.730042
1195.181641	328.031494
1194.017578	342.235535
1192.853516	331.993469
1191.691406	344.155579
1190.527344	364.457825
1189.363281	335.895599
1188.197266	331.767700
1187.033203	341.886475
1185.869141	301.134491
1184.703125	339.735840
1183.539063	355.950073
1182.373047	317.250092
1181.207031	333.462585
1180.041016	339.504730
1178.875000	345.544830
1177.708984	317.034241
1176.542969	302.756836
1175.376953	341.305328
1174.208984	310.778748
1173.042969	345.250977
1171.875000	353.314392
1170.708984	310.620117
1169.541016	308.537415
1168.373047	312.543915
1167.205078	298.286621
1166.037109	324.610443
1164.869141	330.640594
1163.699219	350.865570
1162.531250	330.528046
1161.361328	298.032837
1160.193359	346.632233
1159.023438	312.118561
1157.853516	322.197418
1156.683594	328.220734
1155.513672	324.113434
1154.343750	289.627075
1153.173828	319.953033
1152.003906	360.392029
1150.832031	315.795410
1149.662109	291.453827
1148.490234	311.640594
1147.318359	339.913635
1146.146484	337.832794
1144.974609	315.526581
1143.802734	317.495117
1142.630859	353.835541
1141.458984	317.386963
1140.287109	369.884827
1139.113281	339.508545
1137.941406	333.389099
1136.767578	327.271698
1135.593750	349.434296
1134.419922	359.472290
1133.246094	325.085266
1132.072266	351.274536
1130.898438	339.103821
1129.724609	296.665283
1128.550781	353.112762
1127.375000	340.947906
1126.201172	318.701721
1125.025391	326.714417
1123.849609	326.658722
1122.673828	338.699432
1121.498047	300.342957
1120.322266	338.583984
1119.146484	352.631531
1117.970703	360.630188
1116.792969	334.382141
1115.617188	320.227081
1114.439453	336.281769
1113.261719	348.304352
1112.085938	318.050323
1110.908203	338.122406
1109.730469	338.064758
1108.552734	321.911530
1107.373047	348.007477
1106.195313	323.812988
1105.017578	329.790497
1103.837891	333.755402
1102.658203	331.688232
1101.480469	321.582214
1100.300781	357.699188
1099.121094	347.592133
1097.941406	351.550568
1096.761719	323.371338
1095.580078	355.446960
1094.400391	315.229645
1093.220703	317.183350
1092.039063	319.136383
1090.857422	347.177185
1089.677734	373.201935
1088.496094	351.070923
1087.314453	357.028351
1086.132813	326.885895
1084.951172	310.789337
1083.767578	328.779053
1082.585938	366.806671
1081.402344	354.719666
1080.220703	346.644226
1079.037109	314.530914
1077.853516	354.538025
1076.669922	344.463989
1075.486328	326.383972
1074.302734	316.318176
1073.119141	348.290924
1071.935547	316.210175
1070.750000	326.161102
1069.566406	370.119629
1068.380859	334.050934
1067.197266	353.993500
1066.011719	313.940613
1064.826172	345.875458
1063.640625	381.797272
1062.455078	325.771332
1061.267578	329.712189
1060.082031	345.639191
1058.894531	321.609253
1057.708984	323.551544
1056.521484	341.468262
1055.333984	343.406494
1054.148438	357.321259
1052.960938	319.338715
1051.773438	339.239410
1050.583984	347.162170
1049.396484	377.025513
1048.208984	361.005035
1047.019531	344.990051
1045.832031	380.819855
1044.642578	346.865601
1043.453125	340.826874
1042.263672	318.847839
1041.074219	352.665131
1039.884766	320.730927
1038.695313	334.618530
1037.503906	326.595581
1036.314453	320.566467
1035.125000	300.604095
1033.933594	336.380157
1032.742188	348.263092
1031.550781	334.275391
1030.359375	338.196991
1029.167969	316.259583
1027.976563	322.171631
1026.785156	336.035126
1025.591797	363.810120
1024.400391	339.895569
1023.207031	349.774200
1022.015625	323.883179
1020.822266	349.654541
1019.628906	339.663025
1018.435547	329.674957
1017.242188	323.661591
1016.048828	307.723694
1014.853516	309.656006
1013.660156	335.403290
1012.464844	347.251648
1011.271484	333.304535
1010.076172	321.345795
1008.880859	372.855988
1007.685547	360.894531
1006.490234	348.937195
1005.294922	362.753265
1004.099609	348.817749
1002.904297	334.886963
1001.707031	342.754608
1000.509766	364.485840
999.314453	330.753876
998.117188	354.459930
996.919922	346.479675
995.722656	344.440826
994.525391	358.236267
993.328125	318.597595
992.130859	344.263885
990.931641	338.270355
989.734375	369.858032
988.535156	324.311920
987.335938	338.096588
986.136719	330.131348
984.939453	336.004272
983.738281	341.875183
982.539063	333.913330
981.339844	339.782562
980.140625	321.948090
978.939453	349.540161
977.740234	329.735626
976.539063	355.342773
975.337891	373.045990
974.136719	361.141357
972.935547	339.375244
971.734375	335.371521
970.533203	347.148651
969.332031	376.670624
968.128906	343.086151
966.927734	358.798706
965.724609	339.026367
964.523438	360.646454
963.320313	372.407074
962.117188	346.732330
960.914063	388.037262
959.710938	346.613434
958.505859	387.904205
957.302734	322.869965
956.097656	352.340302
954.894531	379.832520
953.689453	381.735077
952.484375	356.093811
951.281250	387.505249
950.076172	393.338867
948.869141	371.641479
947.664063	373.543762
946.458984	381.342407
945.253906	347.866119
944.046875	334.051392
942.839844	394.898865
941.634766	349.651459
940.427734	349.591461
939.220703	394.695648
938.013672	357.324799
936.806641	400.449158
935.597656	378.791321
934.390625	400.311737
933.183594	343.345734
931.974609	380.557953
930.765625	372.647430
929.556641	382.388306
928.349609	386.243927
927.140625	370.495270
925.929688	395.911102
924.720703	382.125793
923.511719	395.775177
922.300781	376.117767
921.091797	378.011810
919.880859	366.197266
918.669922	405.293121
917.460938	413.053955
916.250000	377.752228
915.039063	381.601227
913.826172	408.927979
912.615234	377.557648
911.404297	393.140167
910.191406	365.694458
908.980469	385.184143
907.767578	385.117950
906.554688	420.234192
905.341797	408.436554
904.128906	410.320313
902.916016	359.456970
901.703125	392.600220
900.488281	380.815338
899.275391	433.469147
898.060547	421.681274
896.847656	431.368286
895.632813	370.795868
894.417969	378.537048
893.203125	380.422882
891.988281	411.566315
890.773438	427.097290
889.556641	378.276855
888.341797	380.161377
887.125000	383.994446
885.910156	397.570557
884.693359	387.759521
883.476563	379.900024
882.259766	438.270813
881.042969	391.454620
879.826172	414.753723
878.609375	385.479401
877.390625	416.557617
876.173828	410.647369
874.955078	391.118134
873.738281	392.996399
872.519531	418.216309
871.300781	402.585510
870.082031	402.516266
868.863281	392.726074
867.642578	398.490082
866.423828	382.873383
865.205078	423.614410
863.984375	406.055847
862.763672	413.756073
861.544922	411.742676
860.324219	444.683258
859.103516	413.542511
857.882813	396.000732
856.660156	430.867798
855.439453	415.269562
854.218750	444.300751
852.996094	415.126617
851.773438	399.539093
850.552734	424.679596
849.330078	416.851135
848.107422	430.348938
846.884766	441.903900
845.662109	482.522491
844.437500	451.439270
843.214844	435.864166
841.990234	441.599640
840.767578	474.444214
839.542969	410.468781
838.318359	464.601624
837.093750	437.424530
835.869141	443.154694
834.644531	419.860291
833.419922	464.281647
832.195313	413.913147
830.968750	452.518646
829.742188	438.906158
828.517578	431.097839
827.291016	440.687775
826.064453	475.397003
824.837891	492.704681
823.611328	498.415314
822.384766	479.014343
821.156250	507.899445
819.929688	474.987579
818.701172	457.531128
817.474609	469.033325
816.246094	447.724213
815.017578	513.250488
813.789063	468.790863
812.560547	497.642761
811.332031	478.271851
810.101563	478.189392
808.873047	512.808289
807.642578	495.372192
806.414063	541.539246
805.183594	495.201385
803.953125	498.969055
802.722656	493.104431
801.492188	479.538422
800.261719	517.966187
799.031250	552.530334
797.798828	540.885925
796.568359	531.169983
795.335938	500.291199
794.103516	525.215149
792.873047	534.742249
791.640625	523.110779
790.408203	582.629456
789.173828	551.768372
787.941406	557.439819
786.708984	528.515503
785.474609	553.404358
784.242188	543.702820
783.007813	593.551880
781.773438	555.038452
780.539063	601.027893
779.304688	562.526489
778.070313	562.429382
776.835938	554.655396
775.599609	594.856384
774.365234	598.590820
773.128906	625.342712
771.894531	579.205200
770.658203	602.116028
769.421875	617.349976
768.185547	672.833618
766.949219	638.219116
765.710938	645.773865
764.474609	626.503235
763.238281	614.901611
762.000000	630.117432
760.761719	698.945679
759.525391	614.583069
758.287109	658.504883
757.048828	683.272156
755.810547	708.030945
754.570313	721.301514
753.332031	719.263977
752.093750	745.916199
750.853516	766.822327
749.613281	738.010681
748.375000	724.501892
747.134766	718.642822
745.894531	751.004883
744.654297	762.338867
743.412109	746.924744
742.171875	790.724854
740.931641	817.323059
739.689453	822.909668
738.447266	805.586731
737.207031	832.168457
735.964844	772.866882
734.722656	879.580383
733.480469	875.613037
732.238281	827.778564
730.994141	854.333374
729.751953	823.679016
728.507813	850.225281
727.265625	850.078247
726.021484	907.101563
724.777344	908.850037
723.533203	855.352417
722.289063	879.965393
721.044922	929.326538
719.800781	936.781860
718.554688	946.138367
717.310547	1025.916260
716.064453	981.968811
714.818359	951.355591
713.572266	994.945801
712.326172	1063.247559
711.080078	1044.046387
709.833984	1110.414551
708.587891	1100.717041
707.339844	1083.419922
706.093750	1106.037354
704.845703	1117.246460
703.599609	1187.343872
702.351563	1198.534912
701.103516	1224.914795
699.855469	1291.159424
698.607422	1239.678223
697.357422	1305.897339
696.109375	1356.911377
694.859375	1337.701904
693.611328	1383.001221
692.361328	1396.039307
691.111328	1409.072876
689.861328	1406.932739
688.611328	1435.126221
687.361328	1518.278809
686.111328	1459.266235
684.859375	1534.806396
683.609375	1506.123169
682.357422	1615.723999
681.105469	1573.779663
679.855469	1554.572021
678.603516	1607.311768
677.351563	1637.319092
676.097656	1595.399780
674.845703	1659.458130
673.593750	1751.872314
672.339844	1683.473267
671.087891	1734.244385
669.833984	1709.362305
668.580078	1724.190552
667.326172	1759.806274
666.072266	1736.822388
664.818359	1676.054932
663.562500	1719.217163
662.308594	1720.808105
661.054688	1752.615967
659.798828	1756.088623
658.542969	1668.938965
657.287109	1763.030273
656.031250	1730.640869
654.775391	1722.792969
653.519531	1780.979858
652.263672	1716.536621
651.005859	1750.186646
649.750000	1753.654419
648.492188	1751.464966
647.236328	1677.646362
645.978516	1745.203491
644.720703	1716.635742
643.462891	1721.989990
642.205078	1751.830322
640.945313	1745.876343
639.687500	1753.105713
638.427734	1752.801514
637.169922	1790.145142
635.910156	1780.424194
634.650391	1712.373047
633.390625	1828.722900
632.130859	1830.286621
630.871094	1782.950317
629.611328	1840.934082
628.349609	1834.974243
627.089844	1907.966797
625.828125	1830.578491
624.566406	1834.019043
623.304688	1938.912964
622.042969	1799.569946
620.781250	1904.433350
619.519531	1930.392212
618.257813	1841.815186
616.994141	1766.408936
615.732422	1852.436646
614.468750	1899.027710
613.205078	1853.669556
611.943359	1815.830566
610.679688	1806.137573
609.416016	1727.065186
608.150391	1818.634399
606.886719	1808.945801
605.623047	1765.524292
604.357422	1692.135376
603.091797	1721.818726
601.828125	1809.562500
600.562500	1739.949829
599.296875	1702.195435
598.031250	1698.155151
596.763672	1705.347900
595.498047	1725.639526
594.232422	1693.527588
592.964844	1648.329834
591.697266	1805.178101
590.431641	1769.328125
589.164063	1735.360596
587.896484	1708.883545
586.628906	1671.199463
585.359375	1644.742676
584.091797	1747.235352
582.822266	1773.088867
581.554688	1767.176392
580.285156	1731.382446
579.015625	1759.092407
577.746094	1747.584106
576.476563	1713.678711
575.207031	1760.041382
573.937500	1817.584595
572.667969	1793.013306
571.396484	1830.010620
570.126953	1820.366699
568.855469	1829.374146
567.583984	1890.583740
566.312500	1729.937378
565.041016	1828.419678
563.769531	1915.686401
562.498047	1872.500000
561.224609	1944.825684
559.953125	1899.786499
558.679688	1908.766968
557.406250	1900.987305
556.134766	1939.749390
554.861328	1984.081543
553.587891	1959.544312
552.312500	1985.251587
551.039063	1938.399414
549.765625	1982.700684
548.490234	1960.040161
547.216797	2015.477905
545.941406	1961.216797
544.666016	1927.419678
543.390625	1951.242310
542.115234	1952.760620
540.839844	1950.562988
539.562500	1866.642334
538.287109	1938.741577
537.009766	1917.980225
535.734375	1891.656738
534.457031	1880.190918
533.179688	1839.037231
531.902344	1777.488281
530.625000	1795.729614
529.347656	1815.819214
528.068359	1830.338501
526.791016	1746.584106
525.511719	1803.747681
524.234375	1860.891235
522.955078	1827.210205
521.675781	1860.242798
520.396484	1770.998291
519.117188	1892.933960
517.837891	2027.790039
516.556641	1970.038940
515.277344	2082.619873
513.996094	2063.748047
512.714844	2085.595215
511.435547	2218.449707
510.154297	2255.061523
508.873047	2347.148682
507.589844	2433.655762
506.308594	2414.741943
505.027344	2406.926270
503.744141	2515.557373
502.462891	2611.214355
501.179688	2636.626465
499.896484	2785.802002
498.613281	2742.834473
497.330078	2779.290283
496.046875	2802.808594
494.761719	2796.781494
493.478516	2768.607666
492.195313	2659.245117
490.910156	2760.261475
489.625000	2591.905518
488.339844	2598.831299
487.054688	2594.689697
485.769531	2465.170410
484.484375	2385.470459
483.197266	2488.271484
481.912109	2310.924316
480.625000	2397.119629
479.339844	2264.062744
478.052734	2291.295898
476.765625	2244.857178
475.478516	2227.894287
474.191406	2205.414307
472.904297	2125.884033
471.615234	2055.582520
470.328125	2174.820313
469.039063	2095.336670
467.750000	2056.345459
466.462891	2094.605225
465.173828	2072.175537
463.884766	2171.084229
462.593750	2043.881470
461.304688	2045.362305
460.015625	2021.119141
458.724609	2037.299683
457.433594	2073.678711
456.144531	1935.585083
454.853516	1909.541626
453.562500	1999.161133
452.271484	2015.331055
450.978516	2055.351807
449.687500	2053.157959
448.396484	1984.922974
447.103516	1960.731934
445.810547	2042.912720
444.519531	2068.225342
443.226563	2067.863770
441.933594	2140.818115
440.638672	2224.742432
439.345703	2193.205322
438.052734	2273.426758
436.757813	2337.135986
435.464844	2358.702881
434.169922	2442.515137
432.875000	2491.515869
431.580078	2648.488770
430.285156	2717.565918
428.990234	2764.662842
427.695313	2872.112305
426.398438	2964.891846
425.103516	2986.318115
423.806641	2956.541260
422.509766	3021.835449
421.212891	3151.078857
419.916016	3015.296143
418.619141	3051.311523
417.322266	3047.124023
416.025391	2909.604004
414.726563	2914.573730
413.429688	2746.085205
412.130859	2738.302490
410.832031	2546.175781
409.533203	2543.905518
408.234375	2527.039063
406.935547	2395.250244
405.636719	2362.000244
404.335938	2279.524170
403.037109	2211.663086
401.736328	2174.816406
400.435547	2137.982422
399.134766	2090.227295
397.833984	2064.353027
396.533203	2158.720459
395.232422	2045.416504
393.931641	2086.942871
392.628906	2015.568359
391.328125	1962.423096
390.025391	1912.936401
388.722656	1916.241089
387.419922	1928.641846
386.117188	1982.878662
384.814453	2033.458862
383.511719	1942.176880
382.207031	2103.656494
380.904297	2036.026367
379.599609	2144.723389
378.296875	2193.413330
376.992188	2296.593750
375.687500	2345.239746
374.382813	2377.522217
373.076172	2309.914795
371.771484	2402.108154
370.466797	2434.363281
369.160156	2493.832275
367.853516	2453.471924
366.548828	2449.413086
365.242188	2439.913574
363.935547	2468.505859
362.628906	2371.961670
361.320313	2478.519287
360.013672	2514.340576
358.705078	2512.087158
357.398438	2544.265625
356.089844	2529.324951
354.781250	2474.535889
353.472656	2512.137207
352.164063	2451.937500
350.855469	2444.265381
349.546875	2362.375488
348.236328	2342.052002
346.927734	2296.400879
345.617188	2160.300781
344.306641	2183.438477
342.996094	2108.900391
341.685547	2128.422363
340.375000	2073.808105
339.064453	1974.020142
337.753906	2031.510376
336.441406	2025.732788
335.130859	2043.444946
333.818359	2185.795166
332.505859	2178.187256
331.193359	2237.396729
329.880859	2441.024658
328.568359	2624.723877
327.253906	2719.920654
325.941406	2865.611084
324.626953	3240.386719
323.314453	3432.836182
322.000000	3538.645264
320.685547	3732.777832
319.371094	3798.831787
318.056641	3772.927979
316.742188	3851.567627
315.425781	3820.257324
314.111328	3727.700195
312.794922	3514.483154
311.478516	3281.529541
310.162109	3210.724121
308.845703	3006.712158
307.529297	3009.784180
306.212891	2881.470215
304.896484	2835.977051
303.578125	2644.767578
302.261719	2624.515869
300.943359	2616.860596
299.625000	2476.140137
298.306641	2450.534424
296.988281	2459.091797
295.669922	2437.092529
294.351563	2515.729980
293.033203	2447.015869
291.712891	2358.566162
290.392578	2455.135742
289.074219	2314.640625
287.753906	2321.415283
286.433594	2286.901123
285.113281	2241.630615
283.791016	2128.187744
282.470703	2109.872559
281.150391	2068.244385
279.828125	2040.978516
278.505859	2078.276123
277.185547	1959.582642
275.863281	1926.972412
274.541016	1973.231201
273.216797	1947.797485
271.894531	2001.202515
270.572266	2047.423584
269.248047	2047.063477
267.923828	2173.838867
266.601563	2257.601807
265.277344	2335.965332
263.953125	2308.708740
262.628906	2331.564453
261.302734	2527.951660
259.978516	2520.351807
258.654297	2713.059570
257.328125	2680.395996
256.001953	2715.680420
254.675781	2733.077393
253.349609	2852.337402
252.023438	2885.785645
250.697266	2760.219238
249.371094	2815.106689
248.042969	2911.050781
246.716797	2815.901123
245.388672	2820.761230
244.060547	2797.060059
242.732422	2680.564453
241.404297	2637.268066
240.076172	2542.249756
238.748047	2515.046143
237.417969	2309.511475
236.089844	2235.998047
234.759766	2055.543457
233.429688	1919.714111
232.101563	1680.567871
230.771484	1669.580811
229.439453	1557.050781
228.109375	1419.623413
226.779297	1328.547607
225.447266	1196.550537
224.117188	1153.613281
222.785156	1053.732544
221.453125	978.802002
220.121094	918.132446
218.789063	914.412598
217.457031	887.570984
216.125000	761.149109
214.791016	762.793030
213.458984	739.547729
212.125000	687.871399
210.791016	671.755981
209.457031	655.646179
208.123047	635.989014
206.789063	648.310242
205.455078	559.401978
204.119141	580.610107
202.785156	585.833496
201.449219	527.157166
200.113281	534.162659
198.777344	484.387695
197.441406	502.042267
196.105469	507.274750
194.769531	466.397644
193.433594	487.592133
192.095703	508.779114
190.757813	457.288666
189.421875	510.371704
188.083984	458.899139
186.746094	458.818176
185.408203	467.593140
184.070313	472.823242
182.730469	432.016876
181.392578	442.562134
180.052734	469.033051
178.712891	454.793274
177.375000	468.867493
176.035156	459.939728
174.695313	406.797943
173.353516	383.737274
172.013672	438.479431
170.673828	406.582520
169.332031	429.487427
167.990234	408.206085
166.650391	431.102570
165.308594	406.295410
163.966797	413.288422
162.625000	423.810699
161.281250	421.970276
159.939453	416.599976
158.595703	382.992493
157.253906	382.924835
155.910156	377.564240
154.566406	412.777679
153.222656	373.903442
151.878906	370.310608
150.535156	334.983734
149.189453	359.603180
147.845703	333.102905
146.500000	380.621765
145.154297	345.317963
143.810547	352.302979
142.464844	354.001923
141.117188	364.504700
139.771484	332.749817
138.425781	337.971802
137.078125	320.312469
135.732422	337.852325
134.384766	300.846527
133.037109	320.142609
131.689453	334.155701
130.341797	321.787781
128.994141	293.601410
127.646484	312.885071
126.296875	323.374573
124.949219	318.045898
123.599609	300.421143
122.250000	298.611481
120.900391	296.802429
119.550781	298.505829
118.201172	284.408173
116.851563	294.889618
115.500000	270.267670
114.150391	317.596069
112.798828	345.609680
111.447266	306.959351
110.095703	259.553955
108.744141	256.001160
107.392578	245.437119
106.041016	212.090256
104.689453	191.022690
103.335938	138.423126
