#Wave		#Intensity
3204.356445	518.516602
3203.525391	544.157532
3202.693359	583.949219
3201.861328	492.716705
3201.028320	467.008728
3200.196289	464.086273
3199.363281	512.405273
3198.531250	469.629059
3197.698242	520.777344
3196.865234	452.405701
3196.032227	534.833679
3195.199219	489.237030
3194.365234	477.782349
3193.532227	491.922729
3192.698242	463.413147
3191.864258	497.449188
3191.031250	494.526855
3190.197266	491.605469
3189.362305	497.208557
3188.528320	519.854248
3187.694336	519.770386
3186.859375	488.448578
3186.024414	496.887878
3185.189453	513.841125
3184.354492	525.112061
3183.519531	544.893250
3182.684570	493.729858
3181.849609	516.346802
3181.013672	513.426880
3180.177734	504.835632
3179.341797	490.575714
3178.506836	476.320374
3177.669922	476.243530
3176.833984	439.320496
3175.998047	447.751221
3175.161133	493.013580
3174.325195	507.098846
3173.488281	492.854553
3172.651367	436.134247
3171.814453	532.337708
3170.977539	529.420715
3170.139648	486.875275
3169.302734	500.947815
3168.464844	452.761108
3167.626953	466.834595
3166.789063	486.561188
3165.951172	497.796234
3165.113281	486.404205
3164.275391	458.050995
3163.436523	452.323059
3162.598633	494.648529
3161.759766	438.046600
3160.920898	497.314575
3160.082031	474.632782
3159.243164	471.731476
3158.404297	482.952515
3157.564453	502.641388
3156.725586	519.500549
3155.885742	491.187531
3155.045898	462.883667
3154.206055	507.961090
3153.366211	479.663605
3152.526367	490.870605
3151.685547	507.715240
3150.845703	470.970917
3150.004883	476.534393
3149.164063	546.939392
3148.323242	456.648865
3147.482422	479.122101
3146.641602	470.591064
3145.800781	487.419861
3144.958984	495.792206
3144.118164	523.877686
3143.276367	447.758667
3142.434570	501.183502
3141.592773	481.396362
3140.750977	540.427979
3139.908203	526.269409
3139.066406	472.721863
3138.223633	483.899048
3137.380859	495.072601
3136.538086	478.117950
3135.695313	489.288818
3134.852539	539.817749
3134.009766	483.508698
3133.166016	430.028442
3132.323242	486.162842
3131.479492	494.513580
3130.635742	455.103821
3129.791992	502.780457
3128.948242	516.741211
3128.104492	499.810272
3127.259766	550.264038
3126.416016	505.262970
3125.571289	522.020813
3124.726563	474.232666
3123.881836	510.629669
3123.037109	488.105591
3122.192383	451.565033
3121.346680	507.578125
3120.501953	457.026978
3119.656250	496.200714
3118.810547	487.711792
3117.964844	493.238037
3117.119141	515.574707
3116.273438	532.300964
3115.427734	521.010559
3114.581055	467.713501
3113.734375	476.038696
3112.888672	509.559143
3112.041992	506.677551
3111.194336	514.992371
3110.347656	450.545593
3109.500977	520.422058
3108.653320	475.577759
3107.806641	483.892181
3106.958984	425.085205
3106.111328	489.328278
3105.263672	464.087891
3104.416016	508.737091
3103.567383	511.449768
3102.719727	505.778473
3101.871094	508.490723
3101.022461	491.647888
3100.174805	511.119537
3099.325195	513.829590
3098.476563	496.993988
3097.627930	482.955475
3096.778320	491.251099
3095.929688	477.218048
3095.080078	496.673065
3094.230469	521.701477
3093.380859	446.303528
3092.531250	493.643555
3091.681641	454.524902
3090.831055	485.119995
3089.981445	554.731567
3089.130859	459.879028
3088.280273	498.818512
3087.429688	484.806702
3086.579102	534.872742
3085.728516	518.074280
3084.876953	509.635925
3084.025391	501.200287
3083.174805	467.711395
3082.323242	537.224548
3081.471680	520.439209
3080.620117	459.136871
3079.767578	517.488892
3078.916016	506.278320
3078.063477	545.134705
3077.211914	522.799866
3076.359375	467.107422
3075.506836	544.870605
3074.654297	475.295044
3073.800781	519.683167
3072.948242	472.362915
3072.095703	541.740540
3071.242188	511.098236
3070.388672	458.247742
3069.535156	527.593994
3068.681641	508.074249
3067.828125	521.871704
3066.973633	471.829071
3066.120117	518.928101
3065.265625	496.647736
3064.411133	443.859222
3063.556641	518.676697
3062.702148	474.221313
3061.847656	504.645233
3060.992188	515.653015
3060.137695	473.991516
3059.282227	473.914917
3058.426758	471.067383
3057.571289	512.549316
3056.715820	498.616058
3055.860352	492.996216
3055.004883	537.223694
3054.148438	484.530701
3053.291992	487.220703
3052.436523	525.891907
3051.580078	523.039551
3050.723633	539.556763
3049.866211	514.570984
3049.009766	520.019958
3048.153320	495.045410
3047.295898	508.791260
3046.438477	536.356262
3045.581055	505.862579
3044.723633	508.544647
3043.866211	527.806152
3043.007813	511.143250
3042.150391	552.497986
3041.291992	522.026245
3040.433594	510.895508
3039.576172	444.545319
3038.716797	485.884033
3037.858398	524.449158
3037.000000	543.683044
3036.140625	507.723450
3035.282227	463.498657
3034.422852	535.144104
3033.563477	515.751404
3032.704102	479.819458
3031.844727	529.370361
3030.984375	490.691132
3030.125000	449.268127
3029.264648	498.799927
3028.404297	506.985382
3027.543945	515.168152
3026.683594	520.593811
3025.823242	539.787781
3024.962891	479.121918
3024.101563	481.797607
3023.241211	514.751953
3022.379883	498.155304
3021.518555	500.826569
3020.657227	500.745605
3019.795898	552.931824
3018.933594	470.328674
3018.072266	500.502808
3017.209961	481.174896
3016.347656	533.330505
3015.485352	527.746948
3014.623047	489.186279
3013.760742	489.107178
3012.898438	571.448608
3012.035156	524.658813
3011.172852	527.320435
3010.309570	480.552917
3009.446289	527.149963
3008.583008	507.848816
3007.719727	494.043274
3006.855469	496.707642
3005.992188	556.990906
3005.127930	515.750488
3004.263672	490.980927
3003.400391	493.644012
3002.535156	490.822174
3001.670898	534.608093
3000.806641	515.333679
2999.941406	512.509644
2999.077148	498.725525
2998.211914	493.165253
2997.346680	528.697266
2996.481445	517.656067
2995.616211	492.926025
2994.750000	503.798462
2993.884766	542.043274
2993.018555	509.109833
2992.152344	478.923706
2991.287109	467.901215
2990.419922	514.334534
2989.553711	511.515930
2988.687500	527.842834
2987.820313	440.253632
2986.954102	497.597534
2986.086914	486.582611
2985.219727	505.636078
2984.352539	475.494324
2983.485352	505.472534
2982.617188	513.586304
2981.750000	469.800812
2980.881836	499.765350
2980.013672	502.415039
2979.145508	477.763092
2978.277344	521.359924
2977.409180	521.275635
2976.541016	510.276276
2975.671875	485.638947
2974.803711	534.661987
2973.934570	512.756104
2973.065430	509.946167
2972.196289	520.769836
2971.326172	517.959473
2970.457031	496.070404
2969.587891	493.264923
2968.717773	498.634674
2967.847656	563.938171
2966.977539	498.473358
2966.107422	509.286530
2965.237305	503.758087
2964.366211	509.121735
2963.496094	503.595093
2962.625000	530.730591
2961.753906	549.693481
2960.882813	560.487793
2960.011719	549.515625
2959.140625	462.388794
2958.269531	508.545349
2957.397461	532.934570
2956.525391	478.476044
2955.654297	491.989471
2954.782227	442.990662
2953.909180	478.243805
2953.037109	491.750671
2952.165039	440.059204
2951.291992	491.591522
2950.418945	575.693542
2949.546875	507.722992
2948.673828	466.920959
2947.799805	502.130219
2946.926758	488.480072
2946.053711	493.827698
2945.179688	499.173553
2944.306641	542.492126
2943.432617	452.907623
2942.558594	512.489136
2941.683594	485.294739
2940.809570	555.694519
2939.935547	517.660828
2939.060547	487.768951
2938.185547	566.262268
2937.311523	503.864746
2936.436523	514.617249
2935.560547	514.533936
2934.685547	541.526978
2933.810547	522.488953
2932.934570	503.457062
2932.058594	543.970337
2931.182617	500.588196
2930.306641	519.445251
2929.430664	513.951172
2928.554688	519.277100
2927.677734	540.826050
2926.801758	483.960938
2925.924805	481.179321
2925.047852	543.266235
2924.170898	526.963989
2923.293945	502.561188
2922.416016	545.703857
2921.539063	445.676056
2920.661133	515.820251
2919.784180	483.334412
2918.906250	469.757385
2918.028320	556.059509
2917.149414	537.077271
2916.271484	507.307434
2915.392578	474.849182
2914.514648	453.191742
2913.635742	512.455261
2912.756836	515.068970
2911.877930	496.111755
2910.999023	560.731140
2910.119141	552.554199
2909.240234	458.141449
2908.360352	509.263000
2907.480469	493.016083
2906.600586	498.323517
2905.720703	530.561218
2904.840820	484.698242
2903.960938	498.081421
2903.080078	506.076416
2902.199219	554.440735
2901.319336	500.530457
2900.438477	500.449371
2899.556641	519.199402
2898.675781	508.356415
2897.794922	508.274048
2896.913086	545.835571
2896.031250	532.305115
2895.150391	540.282776
2894.268555	499.882172
2893.385742	556.230347
2892.503906	480.913544
2891.622070	545.305237
2890.739258	529.102112
2889.856445	504.848114
2888.973633	545.040222
2888.090820	566.427856
2887.208008	453.605682
2886.325195	491.102905
2885.441406	504.439270
2884.558594	515.088562
2883.674805	520.369751
2882.791016	496.148468
2881.907227	504.112427
2881.023438	517.435791
2880.138672	517.351990
2879.254883	538.709290
2878.370117	493.066925
2877.485352	503.704132
2876.601563	530.410950
2875.715820	468.721588
2874.831055	511.493225
2873.946289	522.120483
2873.060547	530.067200
2872.175781	535.334656
2871.290039	599.477600
2870.404297	527.133728
2869.518555	527.048279
2868.631836	526.962891
2867.746094	548.273499
2866.859375	545.510559
2865.973633	524.033020
2865.086914	521.274902
2864.200195	515.844849
2863.313477	561.190979
2862.425781	462.239563
2861.539063	552.994690
2860.651367	520.852539
2859.764648	499.403290
2858.876953	544.715271
2857.989258	531.278259
2857.101563	576.570374
2856.212891	552.457031
2855.325195	482.987976
2854.436523	530.933838
2853.547852	552.188416
2852.659180	533.428894
2851.770508	520.008850
2850.881836	533.255920
2849.993164	533.169434
2849.103516	562.402588
2848.214844	514.341675
2847.325195	543.568359
2846.435547	532.823730
2845.545898	535.401062
2844.656250	516.671448
2843.765625	556.530029
2842.875977	508.516754
2841.985352	532.391907
2841.094727	489.721130
2840.204102	502.947205
2839.313477	542.775635
2838.422852	545.347839
2837.531250	534.620178
2836.640625	518.577271
2835.749023	513.175293
2834.857422	534.360107
2833.965820	505.034637
2833.074219	481.033905
2832.182617	531.442993
2831.290039	502.132141
2830.398438	520.645203
2829.505859	525.872559
2828.613281	493.921387
2827.720703	538.977295
2826.828125	560.126953
2825.934570	525.531494
2825.041992	567.906555
2824.148438	520.054321
2823.254883	504.052521
2822.361328	506.623230
2821.467773	538.365601
2820.574219	538.278259
2819.680664	532.888611
2818.786133	508.945343
2817.891602	540.666687
2816.998047	553.828430
2816.103516	543.140747
2815.208008	524.509338
2814.313477	537.667297
2813.418945	540.228271
2812.523438	503.072113
2811.627930	510.932465
2810.732422	561.140442
2809.836914	518.706055
2808.941406	531.852051
2808.045898	552.930542
2807.149414	521.098755
2806.253906	531.593201
2805.357422	536.795532
2804.460938	512.913513
2803.564453	504.899872
2802.667969	512.747009
2801.770508	544.375000
2800.874023	546.928833
2799.976563	509.855713
2799.079102	533.544739
2798.182617	565.148743
2797.284180	514.888428
2796.386719	546.485168
2795.489258	509.442108
2794.590820	551.586121
2793.692383	527.747925
2792.794922	540.853821
2791.896484	559.231201
2790.997070	509.028809
2790.098633	495.761047
2789.200195	572.141907
2788.300781	487.691589
2787.401367	556.141724
2786.501953	561.322083
2785.602539	490.089020
2784.703125	537.429749
2783.803711	568.950867
2782.903320	489.850372
2782.003906	534.534851
2781.103516	505.487823
2780.203125	571.213806
2779.302734	544.802124
2778.401367	486.821411
2777.500977	457.800934
2776.600586	555.059265
2775.699219	549.708801
2774.797852	581.176636
2773.896484	504.831635
2772.995117	507.378571
2772.093750	512.553162
2771.191406	536.122375
2770.289063	499.248566
2769.387695	517.557861
2768.485352	575.262817
2767.583008	506.884430
2766.680664	554.068665
2765.777344	553.978638
2764.875000	527.638062
2763.971680	522.303101
2763.068359	506.472992
2762.165039	543.123718
2761.261719	545.658875
2760.358398	495.734497
2759.455078	563.839172
2758.550781	532.282654
2757.646484	547.926147
2756.742188	563.564514
2755.837891	550.368958
2754.933594	560.761047
2754.029297	487.311279
2753.124023	592.013245
2752.219727	568.345154
2751.314453	547.303406
2750.409180	518.413757
2749.503906	554.979065
2748.598633	547.036682
2747.693359	557.415771
2746.787109	520.693481
2745.880859	517.992737
2744.975586	515.292908
2744.069336	523.054993
2743.163086	528.199707
2742.255859	535.957214
2741.349609	535.870117
2740.442383	512.260864
2739.536133	483.432953
2738.628906	509.481659
2737.721680	545.971130
2736.813477	491.032959
2735.906250	564.073853
2734.999023	548.316040
2734.090820	592.607178
2733.182617	490.713867
2732.274414	514.121948
2731.366211	506.210388
2730.458008	487.865753
2729.549805	508.654327
2728.640625	539.868408
2727.731445	508.489014
2726.823242	516.228027
2725.914063	526.571289
2725.004883	542.123840
2724.094727	513.370422
2723.185547	523.709045
2722.275391	573.120667
2721.365234	591.260193
2720.456055	565.121643
2719.545898	512.953308
2718.634766	538.903931
2717.724609	549.228210
2716.813477	585.574707
2715.903320	554.253906
2714.992188	528.146729
2714.081055	507.250610
2713.169922	457.751770
2712.258789	491.483032
2711.346680	538.203430
2710.435547	504.321228
2709.523438	514.635925
2708.611328	496.360992
2707.699219	524.861877
2706.787109	522.178650
2705.875000	537.678589
2704.961914	529.799988
2704.049805	532.310486
2703.136719	503.665558
2702.223633	519.158447
2701.310547	573.576782
2700.397461	570.888550
2699.483398	534.472351
2698.570313	552.544128
2697.656250	503.174347
2696.742188	575.703796
2695.828125	565.238831
2694.914063	518.483398
2694.000000	523.583008
2693.084961	510.540009
2692.170898	572.644592
2691.255859	515.555420
2690.340820	520.652161
2689.425781	549.056274
2688.510742	523.072266
2687.594727	546.288574
2686.679688	515.136230
2685.763672	515.052429
2684.847656	561.548706
2683.931641	517.472229
2683.015625	496.692535
2682.099609	556.101685
2681.182617	537.908508
2680.266602	586.948914
2679.349609	527.392456
2678.432617	506.627991
2677.515625	545.311768
2676.598633	568.479004
2675.681641	539.967224
2674.763672	524.380432
2673.846680	498.467743
2672.928711	516.462830
2672.010742	565.434814
2671.092773	552.435425
2670.173828	557.507629
2669.255859	585.803894
2668.336914	557.326172
2667.418945	567.554688
2666.500000	580.359192
2665.581055	549.317261
2664.662109	546.649353
2663.742188	513.044861
2662.823242	546.471436
2661.903320	515.455200
2660.983398	566.908386
2660.063477	587.427612
2659.143555	556.419800
2658.223633	512.544067
2657.303711	545.937988
2656.382813	553.573364
2655.461914	589.524048
2654.541016	555.967102
2653.620117	571.317627
2652.699219	512.043701
2651.778320	537.686951
2650.856445	511.876984
2649.935547	545.227417
2649.013672	606.852417
2648.091797	542.478882
2647.169922	519.255432
2646.248047	516.600708
2645.325195	519.086365
2644.403320	560.110901
2643.480469	580.570862
2642.557617	552.223083
2641.634766	585.517944
2640.711914	516.096252
2639.789063	531.415588
2638.865234	569.831116
2637.941406	538.941650
2637.018555	572.211548
2636.094727	541.331726
2635.170898	620.762756
2634.246094	592.449768
2633.322266	564.145996
2632.397461	579.437378
2631.473633	556.271851
2630.548828	499.794189
2629.624023	612.468506
2628.699219	504.755829
2627.773438	540.538757
2626.848633	527.643799
2625.922852	555.728455
2624.997070	509.548126
2624.071289	565.787903
2623.145508	547.777771
2622.219727	568.162903
2621.293945	534.804932
2620.367188	550.068604
2619.440430	547.420898
2618.513672	539.658875
2617.586914	562.585815
2616.660156	575.278137
2615.733398	559.846130
2614.805664	546.975159
2613.878906	505.997345
2612.951172	559.572571
2612.023438	528.824829
2611.095703	559.390198
2610.166992	556.745178
2609.239258	554.101013
2608.310547	543.798523
2607.382813	536.052002
2606.454102	546.173523
2605.525391	543.532715
2604.596680	533.238647
2603.666992	522.947876
2602.738281	517.761536
2601.808594	545.728638
2600.878906	566.037415
2599.949219	530.254944
2599.019531	512.326294
2598.089844	519.888184
2597.159180	537.639893
2596.229492	540.099854
2595.298828	517.086792
2594.368164	547.564270
2593.437500	560.206970
2592.506836	549.931702
2591.575195	544.750977
2590.644531	557.387878
2589.712891	577.654907
2588.781250	544.484558
2587.849609	559.659241
2586.917969	590.089905
2585.986328	508.615234
2585.053711	554.300232
2584.122070	505.907166
2583.189453	556.661316
2582.256836	574.360474
2581.324219	520.905762
2580.391602	576.713806
2579.458008	510.575195
2578.525391	533.349792
2577.591797	512.948059
2576.658203	543.331604
2575.724609	578.782227
2574.791016	558.383057
2573.857422	522.764282
2572.922852	553.126343
2571.989258	563.183594
2571.054688	517.435669
2570.120117	540.175598
2569.185547	562.908081
2568.250000	567.886719
2567.315430	570.328857
2566.379883	519.548218
2565.445313	577.744751
2564.509766	537.113647
2563.574219	526.893433
2562.638672	574.929321
2561.702148	544.447754
2560.766602	557.018433
2559.830078	526.549744
2558.893555	589.740723
2557.957031	556.745911
2557.020508	579.427307
2556.083984	505.967499
2555.146484	556.473450
2554.209961	536.150513
2553.272461	568.934875
2552.334961	556.201111
2551.397461	609.193604
2550.459961	556.019592
2549.521484	550.875000
2548.583984	520.466614
2547.645508	538.064575
2546.707031	608.696716
2545.768555	542.939575
2544.830078	568.099854
2543.891602	532.664490
2542.952148	562.866333
2542.012695	514.825073
2541.074219	532.403748
2540.134766	585.296265
2539.194336	580.155884
2538.254883	559.885132
2537.315430	574.923340
2536.375000	537.011719
2535.434570	549.527954
2534.494141	531.795715
2533.553711	566.988159
2532.613281	584.532410
2531.672852	513.901489
2530.731445	544.042114
2529.791016	516.252014
2528.849609	546.382385
2527.908203	531.188354
2526.966797	581.442993
2526.024414	515.914917
2525.083008	503.249481
2524.140625	535.873169
2523.198242	545.847412
2522.255859	510.548065
2521.313477	543.154541
2520.371094	560.665222
2519.428711	542.977173
2518.485352	588.129211
2517.541992	522.696167
2516.598633	545.223755
2515.655273	570.256165
2514.711914	514.904907
2513.768555	590.160461
2512.824219	539.845886
2511.879883	517.163208
2510.936523	544.689697
2509.992188	516.994263
2509.046875	526.946899
2508.102539	582.055786
2507.158203	581.960693
2506.212891	554.277222
2505.267578	536.633240
2504.322266	549.081665
2503.376953	584.087402
2502.431641	506.293457
2501.485352	566.354614
2500.540039	548.722961
2499.593750	513.560913
2498.647461	571.086609
2497.701172	598.541199
2496.754883	590.931580
2495.807617	578.317322
2494.861328	573.216614
2493.914063	550.598450
2492.966797	545.503845
2492.019531	562.928040
2491.072266	507.803192
2490.125000	570.247375
2489.176758	560.151428
2488.229492	562.560181
2487.281250	557.468567
2486.333008	537.381836
2485.384766	559.785400
2484.436523	539.704834
2483.487305	522.129028
2482.538086	584.489136
2481.589844	564.414307
2480.640625	541.849060
2479.691406	569.223022
2478.742188	541.671936
2477.791992	506.642548
2476.842773	531.513428
2475.892578	528.931580
2474.942383	551.296082
2473.992188	588.618164
2473.041992	536.153442
2472.090820	538.559143
2471.140625	550.935669
2470.189453	583.248291
2469.238281	618.042419
2468.287109	538.207031
2467.335938	548.084167
2466.384766	570.412537
2465.433594	552.885925
2464.481445	562.755798
2463.529297	585.070740
2462.577148	547.636230
2461.625000	577.412842
2460.672852	530.038025
2459.719727	554.831726
2458.767578	522.401855
2457.814453	552.163025
2456.861328	547.099121
2455.908203	494.795074
2454.955078	517.088196
2454.000977	554.287537
2453.047852	546.741272
2452.093750	566.530090
2451.139648	541.593689
2450.185547	566.344788
2449.231445	531.482300
2448.277344	536.361633
2447.322266	588.411682
2446.368164	585.833069
2445.413086	583.255310
2444.458008	585.641418
2443.502930	555.772095
2442.546875	578.007629
2441.591797	555.590271
2440.635742	575.338623
2439.680664	562.846985
2438.724609	572.671265
2437.768555	572.577576
2436.811523	587.353577
2435.855469	582.301758
2434.898438	584.683899
2433.942383	562.294617
2432.985352	547.342651
2432.028320	596.778198
2431.070313	542.211792
2430.113281	581.730225
2429.156250	586.585083
2428.198242	586.489136
2427.240234	576.496216
2426.282227	559.085022
2425.324219	605.988586
2424.365234	561.375061
2423.407227	548.920105
2422.448242	608.163269
2421.489258	561.099426
2420.530273	553.593384
2419.571289	580.683716
2418.612305	612.706360
2417.652344	580.493591
2416.693359	498.895813
2415.733398	619.813599
2414.773438	565.394714
2413.813477	594.924988
2412.853516	545.464294
2411.892578	565.117065
2410.932617	560.089844
2409.971680	535.328613
2409.010742	567.306091
2408.049805	554.882446
2407.087891	539.997131
2406.126953	574.423462
2405.166016	544.750183
2404.205078	593.951538
2403.242188	583.997803
2402.281250	583.902161
2401.318359	576.416565
2400.355469	536.915527
2399.392578	524.515015
2398.431641	541.663879
2397.468750	544.036865
2396.505859	556.254272
2395.542969	529.093262
2394.578125	548.690552
2393.615234	583.041992
2392.652344	555.889893
2391.687500	555.798828
2390.724609	558.166687
2389.759766	494.154724
2388.796875	545.693420
2387.832031	562.807739
2386.867188	543.057373
2385.902344	518.399658
2384.937500	537.966492
2383.972656	577.175415
2383.007813	574.625183
2382.042969	527.881042
2381.078125	596.530579
2380.111328	598.887329
2379.146484	530.075684
2378.179688	581.515503
2377.214844	537.261719
2376.248047	551.890747
2375.281250	549.347839
2374.314453	563.970093
2373.347656	536.909607
2372.380859	563.785217
2371.414063	610.258728
2370.447266	531.744751
2369.480469	578.208252
2368.511719	585.462402
2367.544922	533.932556
2366.576172	617.105286
2365.609375	541.102783
2364.640625	572.838501
2363.671875	509.106293
2362.703125	535.942322
2361.736328	526.067139
2360.767578	533.320190
2359.796875	569.923035
2358.828125	596.731445
2357.859375	586.852722
2356.890625	569.642761
2355.919922	549.994019
2354.951172	576.788025
2353.980469	537.595581
2353.011719	564.382813
2352.041016	571.618713
2351.070313	583.737061
2350.099609	559.221191
2349.128906	629.936279
2348.158203	529.743225
2347.187500	610.203186
2346.216797	522.248230
2345.244141	590.482910
2344.273438	541.593811
2343.302734	517.112915
2342.330078	607.264099
2341.357422	565.711487
2340.386719	582.684753
2339.414063	606.965332
2338.441406	575.182007
2337.468750	575.087646
2336.496094	604.230225
2335.523438	577.334961
2334.550781	552.884155
2333.576172	572.275146
2332.603516	562.442017
2331.628906	572.087402
2330.656250	540.351318
2329.681641	569.466064
2328.708984	586.405090
2327.734375	532.786926
2326.759766	571.618164
2325.785156	544.772156
2324.810547	573.862244
2323.835938	539.730957
2322.861328	595.551270
2321.884766	578.440613
2320.910156	556.475464
2319.935547	549.095215
2318.958984	551.434326
2317.984375	563.487976
2317.007813	565.823914
2316.031250	560.875000
2315.054688	536.506592
2314.078125	567.972595
2313.101563	567.879333
2312.125000	562.933228
2311.148438	553.136658
2310.171875	555.471497
2309.193359	582.057983
2308.216797	606.210876
2307.240234	577.018005
2306.261719	579.347290
2305.283203	588.946777
2304.306641	579.157104
2303.328125	574.216309
2302.349609	576.544434
2301.371094	581.293884
2300.392578	600.571716
2299.414063	561.732910
2298.433594	561.640686
2297.455078	568.809814
2296.476563	605.017456
2295.496094	554.104980
2294.517578	580.626038
2293.537109	556.341858
2292.556641	563.505920
2291.576172	560.995300
2290.595703	594.750793
2289.615234	529.386292
2288.634766	563.135803
2287.654297	584.791748
2286.673828	536.373718
2285.693359	550.779846
2284.710938	567.596497
2283.730469	577.162903
2282.748047	538.435913
2281.767578	562.488586
2280.785156	547.913879
2279.802734	571.957031
2278.820313	579.101868
2277.837891	569.356567
2276.855469	595.796509
2275.873047	593.286865
2274.890625	552.196594
2273.906250	556.927734
2272.923828	568.888977
2271.941406	578.436096
2270.957031	571.111755
2269.972656	580.655334
2268.990234	626.330200
2268.005859	532.293152
2267.021484	573.144592
2266.037109	573.050354
2265.052734	577.770935
2264.068359	556.013123
2263.083984	575.174438
2262.097656	526.956055
2261.113281	577.391174
2260.126953	524.377441
2259.142578	594.036377
2258.156250	591.534119
2257.171875	593.841064
2256.185547	596.147278
2255.199219	545.577332
2254.212891	595.951294
2253.226563	542.995361
2252.240234	588.548584
2251.253906	590.853699
2250.265625	545.128967
2249.279297	578.654114
2248.291016	597.764221
2247.304688	571.263000
2246.316406	563.969482
2245.330078	597.469360
2244.341797	573.380310
2243.353516	563.691284
2242.365234	573.191711
2241.376953	525.139526
2240.388672	558.618164
2239.400391	618.454041
2238.410156	553.640991
2237.421875	560.738892
2236.431641	582.210022
2235.443359	510.248291
2234.453125	579.623352
2233.464844	541.212097
2232.474609	543.517395
2231.484375	591.307129
2230.494141	569.667786
2229.503906	627.010071
2228.513672	545.552612
2227.523438	595.702820
2226.531250	545.373108
2225.541016	562.024475
2224.548828	516.499207
2223.558594	609.655701
2222.566406	597.603271
2221.576172	595.114929
2220.583984	578.289612
2219.591797	508.906677
2218.599609	558.988586
2217.607422	592.334839
2216.615234	539.700195
2215.621094	599.302856
2214.628906	534.747986
2213.636719	611.039978
2212.642578	587.074585
2211.650391	563.117065
2210.656250	589.267029
2209.662109	565.316956
2208.669922	569.993713
2207.675781	526.978577
2206.681641	581.726746
2205.687500	538.723755
2204.693359	555.318420
2203.697266	588.588318
2202.703125	593.256470
2201.708984	602.687500
2200.712891	557.334595
2199.718750	576.293823
2198.722656	585.722900
2197.726563	561.820496
2196.732422	623.613281
2195.736328	552.116211
2194.740234	544.887024
2193.744141	547.176331
2192.746094	606.552124
2191.750000	592.182739
2190.753906	573.062439
2189.757813	594.365173
2188.759766	549.102966
2187.763672	608.429443
2186.765625	579.813782
2185.767578	541.703979
2184.769531	539.239258
2183.771484	572.401978
2182.773438	565.183533
2181.775391	581.710754
2180.777344	595.858521
2179.779297	534.048096
2178.781250	560.064880
2177.781250	605.055115
2176.783203	566.997437
2175.783203	597.739807
2174.785156	585.783325
2173.785156	573.830811
2172.785156	561.882202
2171.785156	590.234680
2170.785156	611.467651
2169.785156	554.495544
2168.785156	585.204407
2167.785156	637.222839
2166.783203	547.116028
2165.783203	556.498169
2164.781250	584.818726
2163.781250	615.497192
2162.779297	575.158325
2161.777344	570.330444
2160.777344	544.209045
2159.775391	572.508179
2158.773438	577.144531
2157.769531	551.034851
2156.767578	574.589661
2155.765625	534.303955
2154.763672	536.579651
2153.759766	560.125122
2152.757813	567.121826
2151.753906	578.841370
2150.750000	566.934814
2149.748047	578.650513
2148.744141	564.386414
2147.740234	571.376526
2146.736328	585.446350
2145.732422	521.622192
2144.728516	589.973022
2143.722656	582.797241
2142.718750	618.087830
2141.712891	580.246277
2140.708984	582.508911
2139.703125	589.486694
2138.699219	601.177246
2137.693359	622.292603
2136.687500	560.913635
2135.681641	556.108337
2134.675781	570.152649
2133.669922	577.125427
2132.664063	572.319763
2131.656250	576.934998
2130.650391	628.637695
2129.644531	555.558105
2128.636719	588.417847
2127.628906	611.853638
2126.623047	564.694763
2125.615234	574.011597
2124.607422	569.212646
2123.599609	555.008362
2122.591797	545.511414
2121.583984	557.176147
2120.574219	601.744934
2119.566406	634.548157
2118.558594	573.348877
2117.548828	596.748291
2116.541016	575.508667
2115.531250	568.367798
2114.521484	584.711609
2113.511719	579.919434
2112.503906	600.950867
2111.494141	624.322449
2110.482422	563.205444
2109.472656	607.692200
2108.462891	584.132751
2107.453125	555.890015
2106.441406	560.488525
2105.431641	551.016968
2104.419922	604.846375
2103.408203	639.906189
2102.398438	564.805603
2101.386719	616.262878
2100.375000	559.933472
2099.363281	571.553162
2098.351563	585.511047
2097.339844	552.631165
2096.326172	552.539917
2095.314453	571.175720
2094.300781	610.869873
2093.289063	554.606262
2092.275391	594.289978
2091.263672	580.155823
2090.250000	549.653625
2089.236328	619.719788
2088.222656	610.264709
2087.208984	565.745850
2086.195313	565.652405
2085.181641	567.895996
2084.166016	581.821960
2083.152344	553.690857
2082.136719	611.995911
2081.123047	609.559326
2080.107422	581.437561
2079.091797	557.994446
2078.078125	560.236572
2077.062500	588.151184
2076.046875	583.386902
2075.031250	583.290527
2074.013672	555.200806
2072.998047	587.762512
2071.982422	578.337341
2070.964844	559.588806
2069.949219	599.127319
2068.931641	594.366638
2067.916016	582.616089
2066.898438	575.529541
2065.880859	563.785950
2064.863281	579.997925
2063.845703	563.599548
2062.828125	600.763000
2061.810547	570.397705
2060.791016	570.303406
2059.773438	630.721130
2058.753906	618.981873
2057.736328	579.327087
2056.716797	609.472290
2055.699219	572.157959
2054.679688	551.134216
2053.660156	564.993530
2052.640625	623.017456
2051.621094	543.887939
2050.601563	632.107117
2049.580078	578.561157
2048.560547	569.172852
2047.541016	548.173828
2046.519531	629.366699
2045.500000	617.652588
2044.478516	615.228821
2043.457031	554.774963
2042.435547	557.004028
2041.414063	582.437073
2040.392578	593.941101
2039.371094	591.523193
2038.349609	582.148071
2037.328125	549.586731
2036.306641	572.681274
2035.283203	579.541016
2034.261719	579.445129
2033.238281	593.253662
2032.214844	593.155518
2031.191406	576.840942
2030.169922	544.318054
2029.146484	574.334229
2028.121094	578.870117
2027.097656	583.404541
2026.074219	594.881592
2025.050781	606.354797
2024.025391	608.568359
2023.001953	573.764160
2021.976563	626.872437
2020.953125	559.697510
2019.927734	633.602173
2018.902344	591.880676
2017.876953	589.471069
2016.851563	566.260803
2015.826172	545.369141
2014.800781	600.730896
2013.775391	556.739197
2012.748047	584.363892
2011.722656	563.482910
2010.695313	535.681946
2009.669922	519.433105
2008.642578	579.360535
2007.615234	572.341125
2006.587891	595.320862
2005.560547	574.458679
2004.533203	567.443542
2003.505859	562.736938
2002.478516	548.808289
2001.451172	608.661316
2000.421875	592.424438
1999.394531	585.411987
1998.365234	553.053589
1997.335938	557.570007
1996.308594	555.174011
1995.279297	559.688538
1994.250000	543.475830
1993.220703	589.435425
1992.191406	575.525208
1991.162109	575.429871
1990.130859	586.841248
1989.101563	600.549744
1988.072266	577.444519
1987.041016	568.148071
1986.009766	554.255066
1984.980469	590.954102
1983.949219	590.856201
1982.917969	590.758301
1981.886719	576.870667
1980.855469	585.966736
1979.824219	604.249878
1978.792969	565.098206
1977.759766	587.972229
1976.728516	544.243469
1975.695313	544.153259
1974.664063	567.019348
1973.630859	546.268127
1972.597656	555.357056
1971.564453	594.271240
1970.531250	562.055298
1969.498047	539.024902
1968.464844	568.748962
1967.431641	616.806885
1966.398438	582.315918
1965.363281	577.635010
1964.330078	561.496460
1963.294922	538.488953
1962.261719	584.220947
1961.226563	568.089294
1960.191406	581.736877
1959.156250	604.539673
1958.121094	609.018494
1957.085938	565.423401
1956.050781	544.730591
1955.015625	569.812683
1953.980469	560.566101
1952.943359	576.486633
1951.908203	592.401917
1950.871094	500.828186
1949.833984	560.194336
1948.796875	546.384644
1947.761719	601.151978
1946.724609	555.344849
1945.687500	603.237549
1944.648438	543.737610
1943.611328	612.174377
1942.574219	523.002502
1941.537109	522.915710
1940.498047	563.924683
1939.458984	536.438538
1938.421875	577.431641
1937.382813	611.565247
1936.343750	595.492676
1935.304688	597.675049
1934.265625	556.521057
1933.226563	513.100220
1932.187500	590.537354
1931.148438	574.481567
1930.107422	574.386230
1929.068359	558.338379
1928.027344	590.145447
1926.988281	594.603821
1925.947266	617.283142
1924.906250	521.529053
1923.865234	578.368530
1922.824219	580.549194
1921.783203	573.623962
1920.742188	550.769653
1919.701172	521.096313
1918.658203	571.063171
1917.617188	584.617004
1916.574219	550.403992
1915.533203	582.148865
1914.490234	586.599487
1913.447266	588.775330
1912.404297	568.221619
1911.361328	538.584656
1910.318359	599.842773
1909.275391	529.318787
1908.232422	563.301514
1907.189453	570.020935
1906.144531	583.550049
1905.101563	531.237488
1904.056641	578.816467
1903.013672	583.259338
1901.968750	558.202148
1900.923828	598.946716
1899.878906	535.333130
1898.833984	548.852112
1897.789063	557.831360
1896.744141	618.953918
1895.697266	541.778076
1894.652344	537.155090
1893.605469	557.460754
1892.560547	523.382263
1891.513672	564.071533
1890.468750	593.422485
1889.421875	575.207092
1888.375000	584.168396
1887.328125	568.224426
1886.281250	547.758789
1885.232422	538.615417
1884.185547	610.932739
1883.138672	556.535095
1882.089844	572.276306
1881.042969	545.042175
1879.994141	544.951599
1878.945313	542.600159
1877.898438	531.207703
1876.849609	574.060974
1875.800781	558.147583
1874.751953	539.980164
1873.703125	605.400085
1872.652344	553.352112
1871.603516	611.973389
1870.552734	580.262085
1869.503906	562.105957
1868.453125	602.639893
1867.404297	570.945862
1866.353516	537.005981
1865.302734	548.196472
1864.251953	572.916626
1863.201172	561.545349
1862.150391	559.197144
1861.099609	565.867493
1860.046875	540.978516
1858.996094	558.918152
1857.943359	565.585205
1856.892578	560.985229
1855.839844	558.639343
1854.787109	549.537598
1853.734375	565.208984
1852.681641	551.606201
1851.628906	589.782837
1850.576172	569.428345
1849.523438	573.834290
1848.470703	584.988586
1847.416016	521.902954
1846.363281	584.793945
1845.308594	537.471130
1844.253906	566.611694
1843.201172	539.540344
1842.146484	586.652527
1841.091797	555.092163
1840.037109	588.704224
1838.982422	595.346008
1837.927734	561.553711
1836.871094	570.443604
1835.816406	577.085083
1834.759766	559.028259
1833.705078	590.361267
1832.648438	552.109131
1831.591797	599.140625
1830.537109	531.732971
1829.480469	540.617310
1828.423828	576.412964
1827.365234	596.499329
1826.308594	540.347351
1825.251953	571.641663
1824.195313	558.098328
1823.136719	558.005371
1822.078125	566.874939
1821.021484	557.819580
1819.962891	577.885498
1818.904297	546.436340
1817.845703	530.671509
1816.787109	566.403076
1815.728516	537.209839
1814.669922	541.596375
1813.611328	566.120117
1812.550781	539.178711
1811.492188	550.273376
1810.431641	496.505432
1809.373047	554.562317
1808.312500	572.356079
1807.251953	576.731506
1806.191406	556.520203
1805.130859	565.366089
1804.070313	554.100525
1803.009766	549.540405
1801.949219	549.448853
1800.886719	560.523071
1799.826172	540.334595
1798.763672	575.963196
1797.703125	564.707031
1796.640625	600.319641
1795.578125	544.437134
1794.515625	577.810303
1793.453125	602.250122
1792.390625	575.387512
1791.328125	570.832031
1790.263672	552.901306
1789.201172	523.831299
1788.138672	575.004028
1787.074219	537.026611
1786.009766	579.268250
1784.947266	574.716492
1783.882813	538.985291
1782.818359	518.853882
1781.753906	563.296753
1780.689453	549.846252
1779.625000	578.689026
1778.558594	531.860046
1777.494141	571.821106
1776.429688	562.827271
1775.363281	544.939453
1774.296875	549.296326
1773.232422	578.110229
1772.166016	524.658691
1771.099609	520.125671
1770.033203	551.152405
1768.966797	591.056763
1767.900391	499.870667
1766.832031	564.204285
1765.765625	539.680237
1764.699219	504.061615
1763.630859	539.500183
1762.562500	583.806091
1761.496094	563.733887
1760.427734	574.735107
1759.359375	514.734741
1758.291016	563.451721
1757.222656	521.216797
1756.154297	552.175842
1755.083984	547.649292
1754.015625	551.991577
1752.945313	560.765320
1751.876953	558.455688
1750.806641	538.420959
1749.736328	540.546448
1748.667969	513.876404
1747.597656	560.297546
1746.527344	538.061584
1745.457031	546.827271
1744.384766	566.657532
1743.314453	540.005310
1742.244141	568.681152
1741.171875	519.913452
1740.101563	568.491272
1739.029297	546.279785
1737.957031	550.611145
1736.884766	521.777283
1735.812500	534.953430
1734.740234	568.016846
1733.667969	565.712219
1732.595703	596.549988
1731.523438	519.132690
1730.449219	580.889771
1729.376953	552.084412
1728.302734	505.624847
1727.230469	565.145630
1726.156250	536.357239
1725.082031	529.647034
1724.007813	567.068970
1722.933594	527.263977
1721.859375	535.998962
1720.785156	557.963318
1719.710938	513.769653
1718.634766	551.162903
1717.560547	577.522278
1716.484375	548.774841
1715.408203	550.886719
1714.333984	535.372437
1713.257813	522.066101
1712.181641	537.395996
1711.105469	541.710327
1710.029297	546.023193
1708.951172	517.314575
1707.875000	526.031982
1706.798828	523.743469
1705.720703	547.858521
1704.644531	578.565125
1703.566406	499.286438
1702.488281	560.778687
1701.410156	540.896057
1700.332031	490.242523
1699.253906	531.923157
1698.175781	538.427185
1697.097656	536.139893
1696.017578	573.398010
1694.939453	531.567505
1693.859375	489.750977
1692.781250	540.173096
1691.701172	564.232788
1690.621094	542.187561
1689.541016	526.733826
1688.462891	524.451355
1687.380859	544.109619
1686.300781	550.599487
1685.220703	552.700623
1684.140625	530.679321
1683.058594	591.981201
1681.978516	523.925354
1680.896484	517.262329
1679.814453	528.132935
1678.734375	536.808838
1677.652344	517.002808
1676.570313	532.248596
1675.488281	540.919373
1674.404297	512.364197
1673.322266	525.413818
1672.240234	534.081360
1671.156250	509.918579
1670.074219	597.358276
1668.990234	533.813293
1667.906250	546.848328
1666.822266	553.317932
1665.738281	553.225342
1664.654297	531.269775
1663.570313	518.065308
1662.486328	539.834229
1661.402344	533.188293
1660.316406	530.914246
1659.232422	508.980682
1658.146484	513.263672
1657.062500	556.852478
1655.976563	552.392517
1654.890625	517.372009
1653.804688	569.668701
1652.718750	528.110168
1651.632813	547.658875
1650.546875	493.028656
1649.458984	549.656738
1648.373047	532.118164
1647.285156	470.976563
1646.199219	521.039551
1645.111328	483.897156
1644.023438	557.914063
1642.937500	512.061890
1641.849609	485.832703
1640.759766	529.316467
1639.671875	520.516235
1638.583984	548.736938
1637.496094	559.530823
1636.406250	526.785156
1635.318359	535.402649
1634.228516	470.030884
1633.138672	537.398987
1632.050781	528.607605
1630.960938	511.119202
1629.871094	506.684357
1628.781250	569.652649
1627.689453	510.862335
1626.599609	521.644348
1625.509766	560.673706
1624.417969	554.061401
1623.328125	527.899414
1622.236328	558.219849
1621.144531	558.126282
1620.052734	518.948730
1618.960938	508.006897
1617.869141	501.409943
1616.777344	501.325897
1615.685547	499.071991
1614.593750	544.548157
1613.500000	594.347351
1612.408203	498.821075
1611.314453	531.263794
1610.222656	526.838623
1609.128906	496.402527
1608.035156	528.829285
1606.941406	533.074585
1605.847656	519.985535
1604.753906	543.727051
1603.658203	539.304138
1602.564453	541.379211
1601.470703	484.994415
1600.375000	530.373657
1599.281250	515.133728
1598.185547	471.766052
1597.089844	534.434265
1595.994141	506.221252
1594.898438	534.255005
1593.802734	501.726196
1592.707031	508.128784
1591.609375	521.014893
1590.513672	523.088989
1589.417969	486.261505
1588.320313	518.591919
1587.222656	557.392761
1586.126953	511.937683
1585.029297	518.330933
1583.931641	503.128510
1582.833984	526.792969
1581.736328	496.483795
1580.636719	548.198792
1579.539063	520.054077
1578.441406	545.857300
1577.341797	524.193909
1576.244141	498.224152
1575.144531	530.487305
1574.044922	498.056915
1572.945313	521.686340
1571.845703	502.200470
1570.746094	527.976196
1569.646484	510.650452
1568.546875	514.873291
1567.445313	529.864258
1566.345703	508.239746
1565.244141	506.001221
1564.144531	542.514465
1563.042969	484.306580
1561.941406	518.659058
1560.839844	529.330688
1559.738281	548.604309
1558.636719	531.303955
1557.535156	541.968079
1556.431641	507.472168
1555.330078	522.436523
1554.228516	481.506714
1553.125000	500.768829
1552.021484	543.661987
1550.917969	513.491638
1549.816406	498.368408
1548.712891	504.728027
1547.609375	502.495819
1546.503906	491.676086
1545.400391	525.940613
1544.296875	487.218231
1543.191406	493.574310
1542.087891	534.258057
1540.982422	497.698944
1539.876953	486.890839
1538.773438	527.555176
1537.667969	469.573853
1536.562500	512.371155
1535.457031	514.428528
1534.349609	482.195679
1533.244141	486.400116
1532.138672	482.033600
1531.031250	567.633057
1529.925781	484.013214
1528.818359	488.214447
1527.710938	503.118896
1526.603516	481.628601
1525.496094	535.052917
1524.388672	515.704285
1523.281250	498.501648
1522.173828	472.748260
1521.064453	515.444214
1519.957031	547.433777
1518.847656	476.785919
1517.740234	485.256531
1516.630859	480.900269
1515.521484	540.654663
1514.412109	478.601898
1513.302734	523.382813
1512.193359	486.984528
1511.083984	503.986908
1509.974609	510.307678
1508.863281	505.952209
1507.753906	520.808289
1506.642578	503.647888
1505.531250	486.493225
1504.421875	514.145386
1503.310547	531.123047
1502.199219	518.237732
1501.087891	460.578217
1499.976563	492.479950
1498.863281	475.344360
1497.751953	498.707916
1496.638672	485.838776
1495.527344	494.279053
1494.414063	481.414948
1493.300781	515.410645
1492.189453	502.547302
1491.076172	491.817322
1489.962891	478.962219
1488.849609	457.597961
1487.734375	519.233093
1486.621094	519.145630
1485.507813	527.567444
1484.392578	470.051483
1483.277344	480.605225
1482.164063	510.291290
1481.048828	497.450256
1479.933594	495.240997
1478.818359	488.782196
1477.703125	488.699890
1476.587891	533.230530
1475.472656	520.396301
1474.355469	467.215942
1473.240234	484.124084
1472.123047	522.256409
1471.005859	509.432648
1469.890625	519.958252
1468.773438	483.798004
1467.656250	477.351807
1466.539063	515.453125
1465.421875	504.762054
1464.302734	462.267181
1463.185547	517.312805
1462.068359	500.267426
1460.949219	500.183136
1459.830078	517.051392
1458.712891	500.014618
1457.593750	506.285400
1456.474609	468.076233
1455.355469	491.291351
1454.236328	480.622162
1453.117188	463.605804
1451.996094	459.294525
1450.876953	529.052002
1449.755859	499.340912
1448.636719	505.603210
1447.515625	486.481750
1446.394531	467.366730
1445.273438	477.860077
1444.152344	539.087524
1443.031250	488.267517
1441.910156	479.731781
1440.789063	492.328888
1439.667969	511.259674
1438.544922	464.703156
1437.423828	462.512878
1436.300781	483.550629
1435.177734	502.470062
1434.054688	538.270020
1432.931641	491.748077
1431.808594	525.427551
1430.685547	497.911621
1429.562500	472.514374
1428.439453	478.761932
1427.314453	497.659729
1426.191406	562.935303
1425.066406	495.383820
1423.941406	539.561157
1422.816406	495.216705
1421.691406	478.277557
1420.566406	471.877075
1419.441406	480.222443
1418.316406	526.470825
1417.191406	484.271454
1416.064453	465.243195
1414.939453	477.793579
1413.812500	519.802185
1412.687500	483.944672
1411.560547	467.032959
1410.433594	519.539063
1409.306641	458.463165
1408.179688	506.747589
1407.052734	485.638733
1405.923828	437.211304
1404.796875	489.678040
1403.667969	508.506805
1402.541016	479.008179
1401.412109	518.837891
1400.283203	499.848480
1399.156250	508.163513
1398.027344	457.689819
1396.898438	468.108246
1395.767578	505.807343
1394.638672	472.147034
1393.509766	484.655762
1392.378906	478.280762
1391.250000	478.199982
1390.119141	467.634155
1388.988281	517.875000
1387.859375	490.535583
1386.728516	519.796082
1385.597656	473.605103
1384.464844	500.763275
1383.333984	435.737091
1382.203125	500.594116
1381.070313	519.357178
1379.939453	554.864502
1378.806641	473.125275
1377.673828	512.814636
1376.542969	491.800293
1375.410156	497.994446
1374.277344	468.621460
1373.144531	464.358856
1372.009766	485.193909
1370.876953	428.654938
1369.744141	497.573822
1368.609375	482.857666
1367.476563	482.776062
1366.341797	499.411133
1365.207031	476.345154
1364.072266	480.442413
1362.937500	467.830017
1361.802734	463.574585
1360.667969	459.320587
1359.533203	442.543182
1358.396484	507.168945
1357.261719	461.174408
1356.125000	492.392578
1354.988281	475.620880
1353.853516	492.226074
1352.716797	437.923706
1351.580078	444.104645
1350.443359	473.214600
1349.304688	441.870178
1348.167969	466.802734
1347.031250	439.637115
1345.892578	468.728058
1344.755859	443.654175
1343.617188	495.642426
1342.478516	462.243713
1341.339844	460.083679
1340.201172	484.983551
1339.062500	480.739258
1337.923828	482.738678
1336.785156	453.531158
1335.646484	445.134155
1334.505859	465.855988
1333.365234	474.094604
1332.226563	474.014374
1331.085938	484.327454
1329.945313	471.775665
1328.804688	482.085571
1327.664063	442.529541
1326.523438	469.458893
1325.382813	475.610138
1324.240234	452.687592
1323.099609	471.296753
1321.957031	444.230988
1320.816406	491.892151
1319.673828	435.779999
1318.531250	408.733948
1317.388672	443.930237
1316.246094	472.892303
1315.103516	493.549622
1313.960938	464.438629
1312.816406	483.017303
1311.673828	458.063293
1310.529297	449.696411
1309.386719	449.620239
1308.242188	464.045532
1307.097656	443.254120
1305.953125	486.668579
1304.808594	420.327606
1303.664063	482.363251
1302.519531	469.862274
1301.375000	461.504578
1300.228516	417.973694
1299.083984	457.210571
1297.937500	440.585327
1296.791016	494.281921
1295.644531	500.401489
1294.498047	456.900787
1293.351563	485.762421
1292.205078	440.212189
1291.058594	444.270325
1289.912109	495.845612
1288.763672	462.710815
1287.617188	468.828369
1286.468750	435.709351
1285.320313	423.247742
1284.173828	472.718567
1283.025391	472.638428
1281.876953	453.986176
1280.726563	464.225311
1279.578125	462.083740
1278.429688	441.380157
1277.279297	449.554047
1276.130859	402.055847
1274.980469	449.401611
1273.832031	451.386536
1272.681641	436.884552
1271.531250	471.837738
1270.380859	444.976715
1269.230469	440.781799
1268.078125	479.835236
1266.927734	475.635803
1265.777344	457.027008
1264.625000	432.249512
1263.474609	475.393799
1262.322266	462.967377
1261.169922	460.831543
1260.017578	456.639496
1258.865234	446.279114
1257.712891	419.472321
1256.560547	499.580780
1255.406250	446.052002
1254.253906	450.086700
1253.099609	480.832947
1251.947266	435.552521
1250.792969	472.453186
1249.638672	457.996460
1248.484375	455.865265
1247.330078	455.787903
1246.175781	459.816040
1245.021484	502.838440
1243.867188	480.180511
1242.710938	461.633667
1241.556641	461.555298
1240.400391	484.038025
1239.244141	438.841339
1238.087891	444.917755
1236.933594	471.491760
1235.775391	450.915558
1234.619141	391.410217
1233.462891	452.811371
1232.306641	460.928772
1231.148438	446.512909
1229.992188	401.383820
1228.833984	468.884094
1227.675781	464.710083
1226.519531	466.678009
1225.361328	458.412811
1224.203125	470.611755
1223.042969	443.936554
1221.884766	417.270386
1220.726563	451.966125
1219.566406	474.381561
1218.408203	459.990173
1217.248047	474.220398
1216.089844	414.872345
1214.929688	422.975281
1213.769531	439.247528
1212.609375	443.258209
1211.449219	477.902283
1210.287109	459.443329
1209.126953	443.032257
1207.964844	487.865051
1206.804688	461.250061
1205.642578	434.644104
1204.482422	430.489746
1203.320313	418.177246
1202.158203	450.738831
1200.996094	403.760712
1199.832031	468.935242
1198.669922	458.662994
1197.507813	413.745605
1196.343750	440.166779
1195.181641	429.904633
1194.017578	437.979980
1192.853516	464.383514
1191.691406	441.903900
1190.527344	478.478149
1189.363281	458.039459
1188.197266	451.855408
1187.033203	463.988800
1185.869141	431.354797
1184.703125	415.006653
1183.539063	384.426056
1182.373047	410.798187
1181.207031	453.427765
1180.041016	441.152863
1178.875000	414.653809
1177.708984	416.615540
1176.542969	412.480804
1175.376953	432.726410
1174.208984	410.309204
1173.042969	434.610046
1171.875000	410.169586
1170.708984	491.307648
1169.541016	462.806122
1168.373047	424.166748
1167.205078	446.415344
1166.037109	403.734222
1164.869141	387.437744
1163.699219	429.962433
1162.531250	450.167023
1161.361328	427.788635
1160.193359	417.580353
1159.023438	453.990662
1157.853516	478.230164
1156.683594	425.471313
1155.513672	441.604553
1154.343750	441.529358
1153.173828	457.654327
1152.003906	453.527069
1150.832031	471.668793
1149.662109	437.180725
1148.490234	437.106262
1147.318359	432.985229
1146.146484	469.324615
1144.974609	469.244659
1143.802734	452.986664
1142.630859	420.558807
1141.458984	471.026489
1140.287109	410.309387
1139.113281	416.302155
1137.941406	432.395538
1136.767578	430.301666
1135.593750	440.327606
1134.419922	424.096527
1133.246094	442.196747
1132.072266	423.952026
1130.898438	419.842804
1129.724609	397.571838
1128.550781	427.770874
1127.375000	433.750305
1126.201172	429.642181
1125.025391	459.820282
1123.849609	421.430084
1122.673828	453.615326
1121.498047	509.978302
1120.322266	427.260742
1119.146484	427.187897
1117.970703	465.394257
1116.792969	455.243164
1115.617188	465.235565
1114.439453	422.869293
1113.261719	438.903748
1112.085938	402.595337
1110.908203	440.766724
1109.730469	456.789856
1108.552734	452.688080
1107.373047	450.599274
1106.195313	512.871521
1105.017578	432.347321
1103.837891	406.136078
1102.658203	432.199829
1101.480469	482.373322
1100.300781	448.128754
1099.121094	452.070709
1097.941406	415.834076
1096.761719	405.720551
1095.580078	457.863861
1094.400391	471.840576
1093.220703	451.685150
1092.039063	455.622375
1090.857422	419.422150
1089.677734	401.292419
1088.496094	429.309601
1087.314453	475.369202
1086.132813	471.277191
1084.951172	433.100006
1083.767578	465.102081
1082.585938	430.947754
1081.402344	432.878235
1080.220703	468.871368
1079.037109	412.696625
1077.853516	444.674805
1076.669922	430.579987
1075.486328	460.541809
1074.302734	452.455109
1073.119141	410.342743
1071.935547	442.293976
1070.750000	454.224365
1069.566406	468.151306
1068.380859	444.067688
1067.197266	467.991425
1066.011719	493.906555
1064.826172	459.834442
1063.640625	493.737854
1062.455078	509.642273
1061.267578	447.609283
1060.082031	477.501526
1058.894531	445.458801
1057.708984	465.355011
1056.521484	415.353210
1055.333984	459.206329
1054.148438	407.226471
1052.960938	435.098999
1051.773438	460.966492
1050.583984	426.969574
1049.396484	436.870819
1048.208984	466.713715
1047.019531	444.698151
1045.832031	446.615967
1044.642578	472.454865
1043.453125	440.483856
1042.263672	428.451782
1041.074219	452.288025
1039.884766	440.257996
1038.695313	468.067596
1037.503906	428.158844
1036.314453	442.023315
1035.125000	451.901520
1033.933594	483.670868
1032.742188	447.766815
1031.550781	449.679993
1030.359375	419.762177
1029.167969	493.285370
1027.976563	459.392883
1026.785156	497.093384
1025.591797	475.139984
1024.400391	437.292542
1023.207031	451.129211
1022.015625	459.000092
1020.822266	494.681702
1019.628906	448.911377
1018.435547	458.764557
1017.242188	446.772125
1016.048828	464.563507
1014.853516	458.529083
1013.660156	486.235504
1012.464844	494.089478
1011.271484	466.229553
1010.076172	434.411896
1008.880859	444.253937
1007.685547	491.768402
1006.490234	461.945251
1005.294922	451.954895
1004.099609	451.877533
1002.904297	477.560699
1001.707031	423.985443
1000.509766	471.454498
999.314453	461.470978
998.117188	469.312836
996.919922	453.393433
995.722656	453.315796
994.525391	455.217377
993.328125	480.864685
992.130859	462.975586
990.931641	464.874481
989.734375	472.706268
988.535156	500.310455
987.335938	444.863922
986.136719	508.046417
984.939453	462.500000
983.738281	480.206177
982.539063	484.075562
981.339844	472.139740
980.140625	483.909698
978.939453	460.129150
977.740234	479.794952
976.539063	483.661011
975.337891	469.761597
974.136719	447.973145
972.935547	477.493073
971.734375	489.247864
970.533203	441.825562
969.332031	437.805634
968.128906	479.137543
966.927734	461.312622
965.724609	504.597382
964.523438	528.159851
963.320313	453.193787
962.117188	506.307983
960.914063	482.584412
959.710938	478.562866
958.505859	482.418945
957.302734	517.773132
956.097656	480.285126
954.894531	525.467773
953.689453	543.087036
952.484375	487.907532
951.281250	493.724976
950.076172	515.273926
948.869141	487.656555
947.664063	497.402985
946.458984	487.489258
945.253906	526.712524
944.046875	510.902130
942.839844	481.344391
941.634766	491.083496
940.427734	504.747223
939.220703	500.733276
938.013672	549.730469
936.806641	510.376404
935.597656	512.251465
934.390625	518.050476
933.183594	508.151703
931.974609	519.834351
930.765625	547.203308
929.556641	513.773010
928.349609	496.039154
927.140625	525.358398
925.929688	505.668640
924.720703	501.662598
923.511719	523.128601
922.300781	507.367188
921.091797	517.073120
919.880859	518.942627
918.669922	501.232086
917.460938	524.637268
916.250000	530.418945
915.039063	516.629333
913.826172	520.453796
912.615234	565.358337
911.404297	496.803986
910.191406	526.052429
908.980469	506.409576
907.767578	525.871765
906.554688	531.645142
905.341797	533.508057
904.128906	502.153900
902.916016	537.231873
901.703125	517.607239
900.488281	505.800903
899.275391	548.670410
898.060547	525.149353
896.847656	515.299683
895.632813	544.484497
894.417969	520.976257
893.203125	534.542908
891.988281	561.758728
890.773438	512.906799
889.556641	559.615784
888.341797	567.317749
887.125000	504.845490
885.910156	537.889587
884.693359	547.539795
883.476563	564.979553
882.259766	514.237732
881.042969	547.257446
879.826172	568.582520
878.609375	543.175537
877.390625	519.723755
876.173828	527.419128
874.955078	579.866699
873.738281	529.183289
872.519531	564.105713
871.300781	550.394714
870.082031	571.689758
868.863281	575.479797
867.642578	553.998413
866.423828	555.846619
865.205078	565.466919
863.984375	590.626709
862.763672	561.387329
861.544922	561.290710
860.324219	561.194153
859.103516	553.331543
857.882813	586.236389
856.660156	568.667847
855.439453	593.796631
854.218750	601.455139
852.996094	585.832886
851.773438	570.216003
850.552734	575.935364
849.330078	597.163452
848.107422	585.429626
846.884766	593.081543
845.662109	592.979431
844.437500	583.189819
843.214844	629.581543
841.990234	608.167908
840.767578	571.269592
839.542969	590.532898
838.318359	596.238770
837.093750	603.878113
835.869141	648.283081
834.644531	624.953369
833.419922	665.470337
832.195313	607.330505
830.968750	605.292053
829.742188	624.522888
828.517578	659.212402
827.291016	647.501770
826.064453	653.187744
824.837891	670.464783
823.611328	647.167175
822.384766	618.083008
821.156250	668.187073
819.929688	695.103760
818.701172	637.068665
817.474609	683.283142
816.246094	673.516174
815.017578	644.457336
813.789063	646.275452
812.560547	648.092896
811.332031	667.266357
810.101563	671.007690
808.873047	645.829956
807.642578	711.254211
806.414063	661.024780
805.183594	639.715393
803.953125	726.298584
802.722656	735.804260
801.492188	687.530945
800.261719	700.891052
799.031250	706.545776
797.798828	712.198486
796.568359	719.773804
795.335938	719.649658
794.103516	688.743652
792.873047	729.019043
791.640625	703.891724
790.408203	740.304810
789.173828	747.867249
787.941406	766.960266
786.708984	728.390442
785.474609	728.264771
784.242188	760.799683
783.007813	754.905762
781.773438	741.331665
780.539063	802.650696
779.304688	766.034302
778.070313	792.775879
776.835938	813.750488
775.599609	784.826660
774.365234	830.736633
773.128906	832.511475
771.894531	880.315186
770.658203	791.955139
769.421875	835.914856
768.185547	866.441040
766.949219	845.209106
765.710938	854.644409
764.474609	865.992310
763.238281	835.193420
762.000000	913.574463
760.761719	846.394531
759.525391	943.892395
758.287109	930.329529
757.048828	997.156311
755.810547	947.230591
754.570313	926.020996
753.332031	967.945618
752.093750	941.001953
750.853516	1028.804077
749.613281	978.915710
748.375000	986.393066
747.134766	1051.206299
745.894531	1037.647949
744.654297	1018.362427
743.412109	1050.661377
742.171875	1058.119751
740.931641	1096.129517
739.689453	1044.388916
738.447266	1028.936523
737.207031	1091.743896
735.964844	1062.930542
734.722656	1133.342163
733.480469	1196.098877
732.238281	1157.745605
730.994141	1182.336304
729.751953	1180.225220
728.507813	1170.489502
727.265625	1191.253174
726.021484	1181.518799
724.777344	1270.865723
723.533203	1245.880737
722.289063	1304.710571
721.044922	1382.563599
719.800781	1348.052002
718.554688	1391.603882
717.310547	1341.875610
716.064453	1459.631958
714.818359	1432.741455
713.572266	1474.346069
712.326172	1496.915649
711.080078	1521.379028
709.833984	1593.368774
708.587891	1617.807007
707.339844	1644.137329
706.093750	1717.968750
704.845703	1721.471558
703.599609	1804.762695
702.351563	1834.841064
701.103516	1840.220703
699.855469	2018.386108
698.607422	1949.692993
697.357422	1960.744141
696.109375	2062.884766
694.859375	2119.451172
693.611328	2139.952637
692.361328	2209.763428
691.111328	2239.724121
689.861328	2241.232422
688.611328	2348.905518
687.361328	2376.930908
686.111328	2412.527100
684.859375	2357.159424
683.609375	2442.003418
682.357422	2454.839600
681.105469	2651.373779
679.855469	2624.405273
678.603516	2563.368896
677.351563	2619.710449
676.097656	2628.719238
674.845703	2696.383057
673.593750	2550.241699
672.339844	2657.617920
671.087891	2706.329102
669.833984	2698.296387
668.580078	2701.610107
667.326172	2636.874023
666.072266	2608.068359
664.818359	2567.935303
663.562500	2618.500000
662.308594	2612.379395
661.054688	2564.711670
659.798828	2507.619141
658.542969	2546.831055
657.287109	2559.603027
656.031250	2425.161865
654.775391	2466.254639
653.519531	2420.547852
652.263672	2403.151367
651.005859	2383.874756
649.750000	2283.521973
648.492188	2307.635254
647.236328	2442.954834
645.978516	2203.178223
644.720703	2199.027344
643.462891	2219.370117
642.205078	2218.985107
640.945313	2269.450928
639.687500	2197.501953
638.427734	2086.041016
637.169922	2255.093506
635.910156	2130.486572
634.650391	2118.826416
633.390625	2095.882080
632.130859	2206.501709
630.871094	2172.265381
629.611328	2119.236572
628.349609	2167.751465
627.089844	2146.697754
625.828125	2052.352783
624.566406	2138.436035
623.304688	2151.216553
622.042969	2066.312012
620.781250	2054.684570
619.519531	2024.282837
618.257813	2121.560791
616.994141	2121.192383
615.732422	2132.085205
614.468750	2114.826416
613.205078	2065.678467
611.943359	2039.057617
610.679688	2033.076904
609.416016	2064.602295
608.150391	2000.497803
606.886719	2101.376465
605.623047	2099.137207
604.357422	1990.086182
603.091797	2032.832764
601.828125	2081.184082
600.562500	2045.237061
599.296875	2057.989990
598.031250	2031.420532
596.763672	2122.793213
595.498047	2062.532227
594.232422	2153.867676
592.964844	2157.235352
591.697266	2201.756104
590.431641	2079.802246
589.164063	2214.080811
587.896484	2150.126953
586.628906	2203.964355
585.359375	2197.974365
584.091797	2287.289795
582.822266	2180.394775
581.554688	2260.342041
580.285156	2330.922607
579.015625	2315.578125
577.746094	2335.713379
576.476563	2417.444336
575.207031	2319.969727
573.937500	2481.917236
572.667969	2507.606689
571.396484	2419.494141
570.126953	2525.385742
568.855469	2582.755371
567.583984	2696.039551
566.312500	2598.634521
565.041016	2685.782471
563.769531	2625.683105
562.498047	2772.417725
561.224609	2712.323975
559.953125	2745.377686
558.679688	2862.219482
557.406250	2884.063965
556.134766	2786.760742
554.861328	2903.533936
553.587891	2912.333252
552.312500	2913.687012
551.039063	2933.642822
549.765625	2953.591553
548.490234	2971.673828
547.216797	3082.714355
545.941406	3087.754639
544.666016	3051.902588
543.390625	3021.638184
542.115234	2982.093994
540.839844	3024.301514
539.562500	2982.913086
538.287109	2872.828857
537.009766	2913.176025
535.734375	2892.248535
534.457031	2850.911377
533.179688	2698.244385
531.902344	2729.316406
530.625000	2739.971680
529.347656	2771.025391
528.068359	2714.909424
526.791016	2669.937500
525.511719	2699.133301
524.234375	2804.311279
522.955078	2776.025146
521.675781	2697.722656
520.396484	2847.305908
519.117188	2880.148926
517.837891	2848.165527
516.556641	3084.666260
515.277344	3060.062744
513.996094	3242.768066
512.714844	3210.743164
511.435547	3304.546387
510.154297	3414.966064
508.873047	3543.843018
507.589844	3644.935791
506.308594	3814.404541
505.027344	3902.474365
503.744141	3960.939941
502.462891	4011.993164
501.179688	4040.856201
499.896484	4178.702637
498.613281	4137.339355
497.330078	4240.033691
496.046875	4296.531738
494.761719	4260.707520
493.478516	4169.522949
492.195313	4122.660156
490.910156	4164.378418
489.625000	3977.329834
488.339844	4046.725098
487.054688	3856.073975
485.769531	3683.927002
484.484375	3749.649902
483.197266	3607.071777
481.912109	3304.216309
480.625000	3307.324707
479.339844	3148.318604
478.052734	3151.452881
476.765625	3016.469238
475.478516	3003.053955
474.191406	2890.234131
472.904297	2740.641602
471.615234	2782.489502
470.328125	2770.964111
469.039063	2669.300781
467.750000	2705.620850
466.462891	2570.902588
465.173828	2618.259033
463.884766	2621.478516
462.593750	2578.746094
461.304688	2638.939941
460.015625	2520.886719
458.724609	2601.277100
457.433594	2677.965820
456.144531	2642.606201
454.853516	2647.652832
453.562500	2726.128906
452.271484	2698.120850
450.978516	2688.473633
449.687500	2834.789307
448.396484	2909.508301
447.103516	2864.979736
445.810547	2998.350342
444.519531	3098.670898
443.226563	3197.122803
441.933594	3328.532227
440.638672	3447.067871
439.345703	3538.077881
438.052734	3716.988770
436.757813	3965.438232
435.464844	4074.622559
434.169922	4191.092285
432.875000	4316.674805
431.580078	4729.574707
430.285156	4906.258789
428.990234	5044.457520
427.695313	5030.770020
426.398438	5295.102539
425.103516	5495.337402
423.806641	5404.784180
422.509766	5519.008789
421.212891	5620.398438
419.916016	5639.517578
418.619141	5446.682129
417.322266	5321.506348
416.025391	5360.758301
414.726563	5195.464844
413.429688	5024.751465
412.130859	4861.399902
410.832031	4566.689453
409.533203	4385.225586
408.234375	4234.843262
406.935547	4055.324951
405.636719	3843.038330
404.335938	3669.122070
403.037109	3566.375000
401.736328	3379.806885
400.435547	3235.224854
399.134766	3161.764893
397.833984	3037.313721
396.533203	2911.084473
395.232422	2981.608887
393.931641	2782.590576
392.628906	2760.254395
391.328125	2710.619629
390.025391	2551.795410
388.722656	2560.447510
387.419922	2665.528564
386.117188	2568.646484
384.814453	2662.776123
383.511719	2684.132080
382.207031	2712.753174
380.904297	2795.900391
379.599609	2937.180664
378.296875	2976.645508
376.992188	3052.434814
375.687500	3297.142090
374.382813	3352.869385
373.076172	3232.427734
371.771484	3326.275391
370.466797	3300.277832
369.160156	3257.954102
367.853516	3152.130615
366.548828	3069.931152
365.242188	2935.152588
363.935547	2843.950928
362.628906	2752.781006
361.320313	2668.895508
360.013672	2672.053223
358.705078	2599.085938
357.398438	2540.641357
356.089844	2598.174805
354.781250	2518.012207
353.472656	2365.429932
352.164063	2417.530762
350.855469	2257.776855
349.546875	2302.637207
348.236328	2276.894287
346.927734	2119.058594
345.617188	2171.156494
344.306641	2176.202637
342.996094	2155.925537
341.685547	2204.372803
340.375000	2147.937256
339.064453	2189.137695
337.753906	2208.635010
336.441406	2387.147949
335.130859	2421.057617
333.818359	2534.438721
332.505859	2640.555420
331.193359	2954.302734
329.880859	3109.056396
328.568359	3397.338623
327.253906	3804.640381
325.941406	4128.790039
324.626953	4562.883301
323.314453	5007.647461
322.000000	5425.201660
320.685547	5703.756348
319.371094	5846.991699
318.056641	5883.820801
316.742188	5587.206543
315.425781	5451.074707
314.111328	5098.787598
312.794922	4798.863770
311.478516	4466.626465
310.162109	4064.276123
308.845703	3874.517578
307.529297	3627.221924
306.212891	3342.217285
304.896484	3107.698242
303.578125	3080.164795
302.261719	2827.785400
300.943359	2767.937012
299.625000	2598.418701
298.306641	2544.025146
296.988281	2459.091797
295.669922	2413.728027
294.351563	2380.958740
293.033203	2258.369141
291.712891	2270.546631
290.392578	2144.427246
289.074219	2154.824463
287.753906	2120.333740
286.433594	2075.084473
285.113281	1963.445801
283.791016	1990.017090
282.470703	1930.461548
281.150391	1826.082153
279.828125	1788.098022
278.505859	1735.781860
277.185547	1765.955078
275.863281	1763.851929
274.541016	1736.658447
273.216797	1790.110107
271.894531	1732.464478
270.572266	1798.436890
269.248047	1857.222046
267.923828	1774.525879
266.601563	1881.633301
265.277344	1918.892456
263.953125	1909.606445
262.628906	1891.376587
261.302734	2003.755005
259.978516	2064.219971
258.654297	2038.818726
257.328125	2102.832275
256.001953	2157.884277
254.675781	2128.904541
253.349609	2225.037598
252.023438	2142.450195
250.697266	2226.041016
249.371094	2220.290283
248.042969	2214.541748
246.716797	2119.514648
245.388672	2065.582764
244.060547	2020.594727
242.732422	1991.684326
241.404297	2048.432861
240.076172	1892.860962
238.748047	1896.095093
237.417969	1751.305298
236.089844	1660.059082
234.759766	1629.459473
233.429688	1500.835083
232.101563	1391.859497
230.771484	1404.087158
229.439453	1257.755005
228.109375	1188.066284
226.779297	1132.649170
225.447266	1127.107910
224.117188	1027.214355
222.785156	994.994141
221.453125	977.022400
220.121094	916.353088
218.789063	910.854553
217.457031	789.742493
216.125000	768.262695
214.791016	780.573730
213.458984	732.436646
212.125000	783.853455
210.791016	687.750183
209.457031	733.826172
208.123047	689.284180
206.789063	641.205444
205.455078	689.041138
204.119141	639.203796
202.785156	626.664307
201.449219	598.154724
200.113281	562.556702
198.777344	621.009827
197.441406	569.454285
196.105469	548.069580
194.769531	558.613159
193.433594	537.237854
192.095703	537.143066
190.757813	597.311157
189.421875	570.623901
188.083984	561.664185
186.746094	589.909058
185.408203	524.271057
184.070313	524.178589
182.730469	540.021118
181.392578	532.844788
180.052734	522.131165
178.712891	536.195984
177.375000	546.717224
176.035156	521.854675
174.695313	532.374695
173.353516	553.501221
172.013672	556.939636
170.673828	569.215515
169.332031	551.440674
167.990234	514.233643
166.650391	579.514954
165.308594	597.077637
163.966797	574.011719
162.625000	535.061035
161.281250	529.669800
159.939453	580.768616
158.595703	547.132141
157.253906	474.685608
155.910156	527.531311
154.566406	479.809937
153.222656	493.834747
151.878906	462.006561
150.535156	465.451080
149.189453	490.047485
147.845703	435.324951
146.500000	428.199463
145.154297	415.791016
143.810547	410.432983
142.464844	413.882843
141.117188	427.896820
139.771484	448.948151
138.425781	433.026367
137.078125	457.589233
135.732422	450.469757
134.384766	408.166046
133.037109	423.925079
131.689453	420.332703
130.341797	411.466370
128.994141	395.570770
127.646484	421.867523
126.296875	418.277985
124.949219	409.418213
123.599609	400.561523
122.250000	430.351837
120.900391	419.738342
119.550781	409.128601
118.201172	403.789398
116.851563	384.409698
115.500000	387.851654
114.150391	389.537689
112.798828	373.679504
111.447266	354.318787
110.095703	345.487366
108.744141	331.398773
107.392578	301.537018
106.041016	312.000519
104.689453	252.360245
103.335938	231.289276
