#Wave		#Intensity
3204.356445	23546.919922
3203.525391	23333.246094
3202.693359	23497.546875
3201.861328	23203.253906
3201.028320	23267.855469
3200.196289	23101.816406
3199.363281	23365.679688
3198.531250	23179.751953
3197.698242	23170.322266
3196.865234	23152.359375
3196.032227	23470.095703
3195.199219	23224.537109
3194.365234	23508.029297
3193.532227	23231.263672
3192.698242	23540.250000
3191.864258	23385.796875
3191.031250	23234.236328
3190.197266	23207.755859
3189.362305	23428.466797
3188.528320	23174.705078
3187.694336	23290.257813
3186.859375	23249.583984
3186.024414	23492.859375
3185.189453	23208.019531
3184.354492	23232.660156
3183.519531	23481.494141
3182.684570	23588.369141
3181.849609	23476.755859
3181.013672	23101.373047
3180.177734	23386.935547
3179.341797	23306.599609
3178.506836	23064.679688
3177.669922	23389.794922
3176.833984	23612.767578
3175.998047	23268.894531
3175.161133	23259.474609
3174.325195	23590.011719
3173.488281	23586.205078
3172.651367	23268.044922
3171.814453	23315.259766
3170.977539	23144.462891
3170.139648	23219.988281
3169.302734	23541.716797
3168.464844	23351.154297
3167.626953	23248.363281
3166.789063	23179.548828
3165.951172	23085.300781
3165.113281	23452.035156
3164.275391	23595.281250
3163.436523	23421.853516
3162.598633	23268.267578
3161.759766	23329.513672
3160.920898	23274.888672
3160.082031	23367.189453
3159.243164	23337.996094
3158.404297	23226.908203
3157.564453	23590.259766
3156.725586	23227.884766
3155.885742	23018.064453
3155.045898	23403.849609
3154.206055	23086.832031
3153.366211	23280.615234
3152.526367	23003.212891
3151.685547	23397.210938
3150.845703	23294.728516
3150.004883	22966.701172
3149.164063	23377.429688
3148.323242	23539.966797
3147.482422	23488.255859
3146.641602	23552.095703
3145.800781	23280.638672
3144.958984	23307.867188
3144.118164	23081.599609
3143.276367	23235.576172
3142.434570	23307.849609
3141.592773	23180.220703
3140.750977	23435.433594
3139.908203	23485.123047
3139.066406	23405.361328
3138.223633	23359.382813
3137.380859	23366.865234
3136.538086	23309.656250
3135.695313	23227.158203
3134.852539	23347.119141
3134.009766	23278.695313
3133.166016	23412.660156
3132.323242	23302.093750
3131.479492	23503.443359
3130.635742	23339.521484
3129.791992	23484.623047
3128.948242	23449.939453
3128.104492	23375.957031
3127.259766	23459.216797
3126.416016	23469.464844
3125.571289	23300.089844
3124.726563	23585.357422
3123.881836	23606.802734
3123.037109	23072.808594
3122.192383	23388.826172
3121.346680	23205.574219
3120.501953	23409.314453
3119.656250	23374.697266
3118.810547	23115.857422
3117.964844	23484.857422
3117.119141	23461.451172
3116.273438	23337.195313
3115.427734	23235.388672
3114.581055	23690.949219
3113.734375	23524.712891
3112.888672	23271.734375
3112.041992	23427.539063
3111.194336	23426.556641
3110.347656	24069.208984
3109.500977	23516.921875
3108.653320	23353.666016
3107.806641	23453.386719
3106.958984	23320.957031
3106.111328	23496.146484
3105.263672	23604.181641
3104.416016	23446.630859
3103.567383	23537.869141
3102.719727	23489.359375
3101.871094	23477.183594
3101.022461	23425.904297
3100.174805	23729.353516
3099.325195	23474.191406
3098.476563	23551.373047
3097.627930	23315.863281
3096.778320	23390.251953
3095.929688	23587.408203
3095.080078	23458.037109
3094.230469	23811.349609
3093.380859	24086.443359
3092.531250	23466.197266
3091.681641	23493.082031
3090.831055	23291.335938
3089.981445	23599.785156
3089.130859	23439.894531
3088.280273	23684.125000
3087.429688	23538.201172
3086.579102	23737.763672
3085.728516	23622.515625
3084.876953	23526.800781
3084.025391	23756.894531
3083.174805	23538.689453
3082.323242	23871.697266
3081.471680	23620.146484
3080.620117	23850.074219
3079.767578	23929.687500
3078.916016	23842.371094
3078.063477	23518.669922
3077.211914	23475.939453
3076.359375	23613.947266
3075.506836	23751.912109
3074.654297	23862.035156
3073.800781	23733.123047
3072.948242	23901.562500
3072.095703	23814.357422
3071.242188	23938.285156
3070.388672	23667.802734
3069.535156	23708.408203
3068.681641	23923.910156
3067.828125	23689.646484
3066.973633	23566.474609
3066.120117	23468.316406
3065.265625	23780.826172
3064.411133	23738.146484
3063.556641	23931.242188
3062.702148	23841.406250
3061.847656	23718.326172
3060.992188	23819.841797
3060.137695	23710.662109
3059.282227	23618.146484
3058.426758	24024.435547
3057.571289	23912.503906
3056.715820	23869.859375
3055.860352	23835.537109
3055.004883	23524.304688
3054.148438	23465.128906
3053.291992	24014.998047
3052.436523	24138.439453
3051.580078	23805.218750
3050.723633	24067.000000
3049.866211	23531.941406
3049.009766	23854.533203
3048.153320	24135.537109
3047.295898	23766.634766
3046.438477	23737.912109
3045.581055	23764.484375
3044.723633	24061.900391
3043.866211	23618.634766
3043.007813	24369.099609
3042.150391	24166.263672
3041.291992	23993.873047
3040.433594	23672.412109
3039.576172	23861.867188
3038.716797	23819.361328
3037.858398	23865.195313
3037.000000	24129.041016
3036.140625	23827.128906
3035.282227	23765.341797
3034.422852	23662.195313
3033.563477	23997.609375
3032.704102	23858.609375
3031.844727	23749.982422
3030.984375	24063.162109
3030.125000	24026.199219
3029.264648	23986.490234
3028.404297	23910.972656
3027.543945	24110.972656
3026.683594	23988.632813
3025.823242	23698.337891
3024.962891	24030.443359
3024.101563	23930.199219
3023.241211	24096.996094
3022.379883	23443.574219
3021.518555	23882.822266
3020.657227	24178.859375
3019.795898	23957.628906
3018.933594	23865.742188
3018.072266	24120.384766
3017.209961	24077.992188
3016.347656	23909.152344
3015.485352	23880.548828
3014.623047	24184.490234
3013.760742	23768.410156
3012.898438	23918.419922
3012.035156	24109.583984
3011.172852	24097.445313
3010.309570	23964.486328
3009.446289	24248.898438
3008.583008	24187.330078
3007.719727	24210.865234
3006.855469	23916.060547
3005.992188	23997.251953
3005.127930	24382.927734
3004.263672	24159.552734
3003.400391	24183.070313
3002.535156	24107.869141
3001.670898	23958.666016
3000.806641	24124.742188
2999.941406	24298.986328
2999.077148	24021.033203
2998.211914	24008.927734
2997.346680	23961.216797
2996.481445	23730.011719
2995.616211	24323.162109
2994.750000	24056.376953
2993.884766	24088.074219
2993.018555	23977.431641
2992.152344	24055.654297
2991.287109	24147.533203
2990.419922	24168.250000
2989.553711	23997.482422
2988.687500	24103.000000
2987.820313	24238.560547
2986.954102	24062.394531
2986.086914	23940.957031
2985.219727	24112.007813
2984.352539	24310.330078
2983.485352	23981.255859
2982.617188	23674.142578
2981.750000	24014.468750
2980.881836	23983.275391
2980.013672	23952.091797
2979.145508	24101.101563
2978.277344	24124.498047
2977.409180	24191.554688
2976.541016	23849.277344
2975.671875	24022.757813
2974.803711	23912.486328
2973.934570	23946.800781
2973.065430	24147.451172
2972.196289	24064.474609
2971.326172	24169.625000
2970.457031	23800.476563
2969.587891	24445.228516
2968.717773	23770.978516
2967.847656	23919.695313
2966.977539	23790.525391
2966.107422	23980.042969
2965.237305	23924.425781
2964.366211	24173.753906
2963.496094	24161.675781
2962.625000	24002.630859
2961.753906	23966.091797
2960.882813	23856.101563
2960.011719	24290.220703
2959.140625	23970.779297
2958.269531	24244.289063
2957.397461	24093.537109
2956.525391	24192.945313
2955.654297	24205.339844
2954.782227	24030.205078
2953.909180	24107.833984
2953.037109	24136.535156
2952.165039	24102.750000
2951.291992	23889.718750
2950.418945	24583.744141
2949.546875	24224.087891
2948.673828	24366.759766
2947.799805	23890.542969
2946.926758	24182.476563
2946.053711	24154.142578
2945.179688	23911.498047
2944.306641	24170.738281
2943.432617	24166.826172
2942.558594	24279.511719
2941.683594	24050.556641
2940.809570	23908.417969
2939.935547	24302.957031
2939.060547	23916.937500
2938.185547	23799.271484
2937.311523	23879.396484
2936.436523	23872.822266
2935.560547	24023.318359
2934.685547	23634.945313
2933.810547	24167.144531
2932.934570	23990.000000
2932.058594	23726.308594
2931.182617	24122.939453
2930.306641	23975.644531
2929.430664	24242.263672
2928.554688	23902.972656
2927.677734	24450.746094
2926.801758	24211.566406
2925.924805	23869.738281
2925.047852	24160.480469
2924.170898	23997.128906
2923.293945	23774.386719
2922.416016	23992.060547
2921.539063	24501.378906
2920.661133	24356.978516
2919.784180	24118.117188
2918.906250	23992.722656
2918.028320	24113.005859
2917.149414	24074.015625
2916.271484	24339.962891
2915.392578	24220.005859
2914.514648	24359.056641
2913.635742	23885.810547
2912.756836	24073.408203
2911.877930	24274.423828
2910.999023	24211.185547
2910.119141	24223.437500
2909.240234	24130.580078
2908.360352	24032.363281
2907.480469	24171.257813
2906.600586	23827.945313
2905.720703	24160.736328
2904.840820	24242.990234
2903.960938	24082.910156
2903.080078	24235.138672
2902.199219	23867.865234
2901.319336	24203.068359
2900.438477	24406.324219
2899.556641	23762.115234
2898.675781	24401.107422
2897.794922	24426.736328
2896.913086	24406.646484
2896.031250	24236.011719
2895.150391	24103.062500
2894.268555	24023.908203
2893.385742	24127.500000
2892.503906	24045.677734
2891.622070	24060.585938
2890.739258	24172.177734
2889.856445	24487.818359
2888.973633	24419.414063
2888.090820	23937.617188
2887.208008	24081.363281
2886.325195	24192.857422
2885.441406	24207.718750
2884.558594	24265.500000
2883.674805	24307.167969
2882.791016	24311.275391
2881.907227	24261.751953
2881.023438	24287.310547
2880.138672	24253.888672
2879.254883	24271.400391
2878.370117	24693.541016
2877.485352	24274.251953
2876.601563	24339.968750
2875.715820	24327.988281
2874.831055	24358.859375
2873.946289	24411.140625
2873.060547	24348.289063
2872.175781	24317.576172
2871.290039	24043.333984
2870.404297	24518.408203
2869.518555	24688.332031
2868.631836	24317.865234
2867.746094	24493.115234
2866.859375	24331.375000
2865.973633	24608.164063
2865.086914	24331.507813
2864.200195	24351.619141
2863.313477	24275.519531
2862.425781	24624.275391
2861.539063	24366.494141
2860.651367	24349.189453
2859.764648	24516.162109
2858.876953	24111.662109
2857.989258	24462.828125
2857.101563	24293.365234
2856.212891	24401.519531
2855.325195	24122.714844
2854.436523	24468.314453
2853.547852	24160.242188
2852.659180	24150.992188
2851.770508	24035.074219
2850.881836	24436.453125
2849.993164	24261.876953
2849.103516	24828.341797
2848.214844	24381.929688
2847.325195	24537.847656
2846.435547	24480.587891
2845.545898	24386.052734
2844.656250	24595.160156
2843.765625	24612.474609
2842.875977	24296.982422
2841.985352	24431.464844
2841.094727	24792.132813
2840.204102	24343.708984
2839.313477	24549.955078
2838.422852	24756.130859
2837.531250	24560.611328
2836.640625	24327.921875
2835.749023	24454.265625
2834.857422	24577.908203
2833.965820	24778.593750
2833.074219	24450.341797
2832.182617	24712.097656
2831.290039	24365.365234
2830.398438	24568.609375
2829.505859	24633.677734
2828.613281	24329.611328
2827.720703	24368.146484
2826.828125	24409.322266
2825.934570	24317.775391
2825.041992	24507.554688
2824.148438	24702.580078
2823.254883	24441.242188
2822.361328	24296.695313
2821.467773	24698.517578
2820.574219	24052.820313
2819.680664	24557.945313
2818.786133	24463.835938
2817.891602	24695.746094
2816.998047	24604.292969
2816.103516	24658.589844
2815.208008	24387.037109
2814.313477	24491.671875
2813.418945	24540.662109
2812.523438	24420.179688
2811.627930	24683.597656
2810.732422	24695.472656
2809.836914	24490.335938
2808.941406	24642.478516
2808.045898	24215.183594
2807.149414	24496.931641
2806.253906	24664.865234
2805.357422	24652.929688
2804.460938	24588.121094
2803.564453	24258.986328
2802.667969	24252.406250
2801.770508	24475.734375
2800.874023	24440.054688
2799.976563	24800.648438
2799.079102	24669.841797
2798.182617	24193.119141
2797.284180	24492.845703
2796.386719	24689.511719
2795.489258	24809.566406
2794.590820	24707.890625
2793.692383	24719.712891
2792.794922	24713.062500
2791.896484	24611.449219
2790.997070	24715.589844
2790.098633	24492.705078
2789.200195	24646.925781
2788.300781	24381.943359
2787.401367	24559.851563
2786.501953	24534.783203
2785.602539	24657.275391
2784.703125	24497.837891
2783.803711	24559.712891
2782.903320	24632.099609
2782.003906	24406.914063
2781.103516	24639.898438
2780.203125	24920.189453
2779.302734	24666.113281
2778.401367	24438.435547
2777.500977	24421.312500
2776.600586	24456.806641
2775.699219	24155.623047
2774.797852	24638.207031
2773.896484	24560.585938
2772.995117	24777.425781
2772.093750	24697.175781
2771.191406	24564.390625
2770.289063	24255.597656
2769.387695	24590.568359
2768.485352	24652.244141
2767.583008	24776.931641
2766.680664	24591.718750
2765.777344	24375.060547
2764.875000	24381.603516
2763.971680	24632.232422
2763.068359	24313.328125
2762.165039	24506.162109
2761.261719	24300.183594
2760.358398	24340.826172
2759.455078	24347.363281
2758.550781	24563.664063
2757.646484	24363.050781
2756.742188	24857.126953
2755.837891	24486.175781
2754.933594	24607.976563
2754.029297	24383.904297
2753.124023	24086.556641
2752.219727	24724.322266
2751.314453	24458.439453
2750.409180	24661.306641
2749.503906	24442.638672
2748.598633	24443.904297
2747.693359	24725.183594
2746.787109	24566.789063
2745.880859	24356.125000
2744.975586	24252.771484
2744.069336	24672.505859
2743.163086	24814.927734
2742.255859	24593.898438
2741.349609	24694.462891
2740.442383	24570.226563
2739.536133	24605.431641
2738.628906	24797.386719
2737.721680	24464.207031
2736.813477	24632.617188
2735.906250	24662.562500
2734.999023	24525.392578
2734.090820	24631.052734
2733.182617	24493.929688
2732.274414	24456.023438
2731.366211	24835.621094
2730.458008	24416.767578
2729.549805	24277.158203
2728.640625	24651.382813
2727.731445	24550.892578
2726.823242	24836.302734
2725.914063	24738.421875
2725.004883	24684.880859
2724.094727	24738.199219
2723.185547	24762.837891
2722.275391	24907.304688
2721.365234	24744.371094
2720.456055	24797.642578
2719.545898	24681.646484
2718.634766	24716.685547
2717.724609	24814.183594
2716.813477	24664.406250
2715.903320	25024.695313
2714.992188	24984.203125
2714.081055	24272.591797
2713.169922	24749.804688
2712.258789	24815.994141
2711.346680	24429.755859
2710.435547	24755.933594
2709.523438	24686.927734
2708.611328	24425.638672
2707.699219	24967.314453
2706.787109	24859.339844
2705.875000	24696.851563
2704.961914	24703.222656
2704.049805	24792.685547
2703.136719	24806.828125
2702.223633	24592.535156
2701.310547	24731.281250
2700.397461	24771.373047
2699.483398	24821.830078
2698.570313	24615.453125
2697.656250	24748.914063
2696.742188	24724.144531
2695.828125	24896.435547
2694.914063	24692.771484
2694.000000	24486.578125
2693.084961	24780.626953
2692.170898	24789.552734
2691.255859	24725.933594
2690.340820	24387.761719
2689.425781	24782.638672
2688.510742	24814.859375
2687.594727	24671.013672
2686.679688	24698.064453
2685.763672	24888.162109
2684.847656	24977.273438
2683.931641	24797.269531
2683.015625	24907.060547
2682.099609	24884.904297
2681.182617	24772.238281
2680.266602	24760.451172
2679.349609	24872.759766
2678.432617	24910.070313
2677.515625	24970.628906
2676.598633	24974.318359
2675.681641	25171.773438
2674.763672	24981.689453
2673.846680	24569.552734
2672.928711	24730.824219
2672.010742	25263.833984
2671.092773	24751.171875
2670.173828	24969.115234
2669.255859	24861.826172
2668.336914	24904.224609
2667.418945	24758.283203
2666.500000	24736.197266
2665.581055	24928.171875
2664.662109	24673.998047
2663.742188	24860.763672
2662.823242	24970.134766
2661.903320	25079.470703
2660.983398	24879.548828
2660.063477	24795.628906
2659.143555	24925.546875
2658.223633	25055.419922
2657.303711	25048.767578
2656.382813	24691.947266
2655.461914	24886.152344
2654.541016	25075.146484
2653.620117	24878.050781
2652.699219	25308.851563
2651.778320	25255.851563
2650.856445	25148.849609
2649.935547	24982.730469
2649.013672	25099.519531
2648.091797	25038.871094
2647.169922	24865.136719
2646.248047	24884.220703
2645.325195	25018.935547
2644.403320	24865.839844
2643.480469	25144.371094
2642.557617	24916.818359
2641.634766	25125.910156
2640.711914	25121.820313
2639.789063	25405.257813
2638.865234	25244.544922
2637.941406	25109.548828
2637.018555	24987.425781
2636.094727	24862.775391
2635.170898	24627.863281
2634.246094	25021.384766
2633.322266	24607.021484
2632.397461	25077.332031
2631.473633	24560.554688
2630.548828	24443.781250
2629.624023	25021.517578
2628.699219	25037.939453
2627.773438	24831.478516
2626.848633	25060.519531
2625.922852	24854.121094
2624.997070	25049.794922
2624.071289	24802.503906
2623.145508	25105.628906
2622.219727	25150.166016
2621.293945	24759.677734
2620.367188	25006.373047
2619.440430	24848.816406
2618.513672	25105.646484
2617.586914	24572.214844
2616.660156	25094.910156
2615.733398	25262.097656
2614.805664	25265.650391
2613.878906	24834.757813
2612.951172	24897.144531
2612.023438	25031.042969
2611.095703	25003.976563
2610.166992	25234.857422
2609.239258	25008.595703
2608.310547	25004.519531
2607.382813	24837.076172
2606.454102	24878.968750
2605.525391	24890.226563
2604.596680	25023.945313
2603.666992	24912.726563
2602.738281	25043.845703
2601.808594	25200.421875
2600.878906	25127.472656
2599.949219	24939.826172
2599.019531	25221.238281
2598.089844	24801.726563
2597.159180	25156.958984
2596.229492	24821.666016
2595.298828	25125.833984
2594.368164	25030.052734
2593.437500	24824.808594
2592.506836	24907.324219
2591.575195	24635.980469
2590.644531	25085.000000
2589.712891	24935.861328
2588.781250	25262.558594
2587.849609	25009.136719
2586.917969	25267.039063
2585.986328	24863.656250
2585.053711	25230.832031
2584.122070	24980.119141
2583.189453	25016.716797
2582.256836	25236.281250
2581.324219	24828.146484
2580.391602	25215.349609
2579.458008	24898.796875
2578.525391	25019.185547
2577.591797	24639.281250
2576.658203	24975.480469
2575.724609	24984.099609
2574.791016	24769.363281
2573.857422	24869.369141
2572.922852	24994.714844
2571.989258	24922.142578
2571.054688	24923.150391
2570.120117	25078.857422
2569.185547	25082.373047
2568.250000	24943.916016
2567.315430	24704.111328
2566.379883	24905.367188
2565.445313	24607.365234
2564.509766	24925.111328
2563.574219	24915.980469
2562.638672	24886.587891
2561.702148	25156.019531
2560.766602	24688.576172
2559.830078	25102.244141
2558.893555	25239.890625
2557.957031	25119.361328
2557.020508	24986.220703
2556.083984	24987.205078
2555.146484	25069.128906
2554.209961	24870.304688
2553.272461	25040.718750
2552.334961	25180.740234
2551.397461	25343.464844
2550.459961	24712.542969
2549.521484	25135.566406
2548.583984	24972.292969
2547.645508	24834.332031
2546.707031	25262.177734
2545.768555	24972.695313
2544.830078	25152.937500
2543.891602	25355.839844
2542.952148	25051.337891
2542.012695	25529.267578
2541.074219	24962.417969
2540.134766	25243.423828
2539.194336	25060.210938
2538.254883	25162.044922
2537.315430	24920.908203
2536.375000	24861.375000
2535.434570	24980.833984
2534.494141	25183.425781
2533.553711	25138.996094
2532.613281	25308.740234
2531.672852	24619.406250
2530.731445	24738.804688
2529.791016	25283.755859
2528.849609	25385.380859
2527.908203	25132.005859
2526.966797	25175.726563
2526.024414	25249.632813
2525.083008	24983.820313
2524.140625	25019.994141
2523.198242	25154.257813
2522.255859	24928.830078
2521.313477	24824.173828
2520.371094	25124.337891
2519.428711	25019.683594
2518.485352	24804.476563
2517.541992	25345.738281
2516.598633	25072.755859
2515.655273	24927.980469
2514.711914	25260.482422
2513.768555	25125.767578
2512.824219	24903.214844
2511.879883	24924.253906
2510.936523	25128.519531
2509.992188	25423.068359
2509.046875	25125.330078
2508.102539	24968.185547
2507.158203	25242.546875
2506.212891	25150.640625
2505.267578	25046.228516
2504.322266	25022.078125
2503.376953	25130.798828
2502.431641	25094.109375
2501.485352	25034.878906
2500.540039	25045.822266
2499.593750	25116.884766
2498.647461	24769.628906
2497.701172	24938.382813
2496.754883	24904.261719
2495.807617	25173.078125
2494.861328	24883.607422
2493.914063	25214.906250
2492.966797	25003.093750
2492.019531	25036.537109
2491.072266	25084.978516
2490.125000	25323.484375
2489.176758	25126.794922
2488.229492	25082.683594
2487.281250	25223.576172
2486.333008	25116.976563
2485.384766	25185.343750
2484.436523	24801.435547
2483.487305	24827.361328
2482.538086	24930.708984
2481.589844	24976.583984
2480.640625	25109.835938
2479.691406	24963.425781
2478.742188	24996.789063
2477.791992	25087.541016
2476.842773	25318.005859
2475.892578	25054.390625
2474.942383	25075.240234
2473.992188	25116.037109
2473.041992	25049.587891
2472.090820	25185.119141
2471.140625	25255.789063
2470.189453	25236.705078
2469.238281	25132.894531
2468.287109	24999.216797
2467.335938	24950.287109
2466.384766	25227.677734
2465.433594	24969.523438
2464.481445	24870.818359
2463.529297	25222.773438
2462.577148	25517.359375
2461.625000	25159.769531
2460.672852	25416.941406
2459.719727	25273.455078
2458.767578	24958.369141
2457.814453	25001.544922
2456.861328	25047.191406
2455.908203	25244.494141
2454.955078	25148.384766
2454.000977	25191.498047
2453.047852	25013.414063
2452.093750	25369.615234
2451.139648	24980.388672
2450.185547	25043.369141
2449.231445	25076.527344
2448.277344	25022.761719
2447.322266	25038.529297
2446.368164	24806.058594
2445.413086	24829.302734
2444.458008	25048.578125
2443.502930	24925.386719
2442.546875	24941.154297
2441.591797	24907.310547
2440.635742	25188.423828
2439.680664	25161.988281
2438.724609	24971.937500
2437.768555	25188.455078
2436.811523	25070.333984
2435.855469	25113.310547
2434.898438	24967.986328
2433.942383	25231.423828
2432.985352	25041.544922
2432.028320	25272.691406
2431.070313	25068.011719
2430.113281	25138.171875
2429.156250	25042.482422
2428.198242	24845.361328
2427.240234	25464.802734
2426.282227	25312.205078
2425.324219	25330.322266
2424.365234	25007.156250
2423.407227	24891.796875
2422.448242	25100.332031
2421.489258	25111.054688
2420.530273	25109.416016
2419.571289	25238.738281
2418.612305	25041.900391
2417.652344	25267.529297
2416.693359	24828.710938
2415.733398	24903.666016
2414.773438	25062.541016
2413.813477	24781.958984
2412.853516	25204.892578
2411.892578	25040.361328
2410.932617	25023.925781
2409.971680	24869.343750
2409.010742	24971.333984
2408.049805	24922.853516
2407.087891	25079.046875
2406.126953	25109.455078
2405.166016	25088.087891
2404.205078	25170.238281
2403.242188	25018.267578
2402.281250	25115.183594
2401.318359	25204.677734
2400.355469	24599.597656
2399.392578	25302.310547
2398.431641	25101.197266
2397.468750	25065.083984
2396.505859	24950.218750
2395.542969	25199.605469
2394.578125	24917.441406
2393.615234	24977.322266
2392.652344	24850.246094
2391.687500	25141.289063
2390.724609	25048.652344
2389.759766	24874.912109
2388.796875	25025.697266
2387.832031	25085.496094
2386.867188	25241.109375
2385.902344	24920.037109
2384.937500	24997.017578
2383.972656	24995.378906
2383.007813	25185.281250
2382.042969	24901.253906
2381.078125	24884.900391
2380.111328	25057.542969
2379.146484	25242.398438
2378.179688	25054.238281
2377.214844	24964.269531
2376.248047	24795.837891
2375.281250	24914.396484
2374.314453	24971.613281
2373.347656	25212.685547
2372.380859	25071.283203
2371.414063	25084.330078
2370.447266	24886.634766
2369.480469	24833.554688
2368.511719	25062.199219
2367.544922	25256.478516
2366.576172	25142.142578
2365.609375	25243.302734
2364.640625	24925.818359
2363.671875	25004.951172
2362.703125	24932.330078
2361.736328	24769.199219
2360.767578	25119.869141
2359.796875	24775.753906
2358.828125	24950.222656
2357.859375	25144.193359
2356.890625	24880.919922
2355.919922	24864.619141
2354.951172	25102.500000
2353.980469	24912.667969
2353.011719	25235.974609
2352.041016	24872.742188
2351.070313	24900.414063
2350.099609	25084.367188
2349.128906	25221.867188
2348.158203	25273.878906
2347.187500	24857.236328
2346.216797	25065.474609
2345.244141	25017.443359
2344.273438	25269.500000
2343.302734	24923.865234
2342.330078	24905.144531
2341.357422	25135.146484
2340.386719	25401.642578
2339.414063	25158.589844
2338.441406	24983.859375
2337.468750	25121.095703
2336.496094	25255.849609
2335.523438	25083.621094
2334.550781	25086.812500
2333.576172	25275.080078
2332.603516	25088.322266
2331.628906	25157.238281
2330.656250	24914.576172
2329.681641	25110.044922
2328.708984	24986.697266
2327.734375	25410.773438
2326.759766	24873.904297
2325.785156	25258.945313
2324.810547	25203.736328
2323.835938	25386.804688
2322.861328	25163.865234
2321.884766	25310.421875
2320.910156	24987.933594
2319.935547	25044.574219
2318.958984	24911.714844
2317.984375	25036.353516
2317.007813	24789.402344
2316.031250	25300.074219
2315.054688	25084.718750
2314.078125	25129.144531
2313.101563	24916.312500
2312.125000	25101.484375
2311.148438	25133.753906
2310.171875	25316.402344
2309.193359	25377.728516
2308.216797	25087.429688
2307.240234	24920.873047
2306.261719	25197.972656
2305.283203	24915.115234
2304.306641	25138.810547
2303.328125	24950.544922
2302.349609	24733.273438
2301.371094	25170.025391
2300.392578	25228.855469
2299.414063	24883.314453
2298.433594	25019.638672
2297.455078	25313.248047
2296.476563	24904.939453
2295.496094	25355.748047
2294.517578	24949.984375
2293.537109	24933.791016
2292.556641	25106.246094
2291.576172	24954.619141
2290.595703	24979.533203
2289.615234	25033.445313
2288.634766	25287.939453
2287.654297	25508.519531
2286.673828	25083.929688
2285.693359	25014.583984
2284.710938	24715.808594
2283.730469	25694.615234
2282.748047	25147.128906
2281.767578	25097.128906
2280.785156	24967.492188
2279.802734	24886.164063
2278.820313	25017.199219
2277.837891	25058.927734
2276.855469	25204.361328
2275.873047	25096.515625
2274.890625	25239.484375
2273.906250	25052.105469
2272.923828	25267.347656
2271.941406	24995.667969
2270.957031	25133.736328
2269.972656	25206.705078
2268.990234	25255.560547
2268.005859	25309.214844
2267.021484	24975.136719
2266.037109	25004.740234
2265.052734	25128.220703
2264.068359	25059.103516
2263.083984	25187.345703
2262.097656	25127.863281
2261.113281	25087.646484
2260.126953	24939.197266
2259.142578	25074.587891
2258.156250	25113.750000
2257.171875	25100.003906
2256.185547	25040.589844
2255.199219	25055.699219
2254.212891	24996.310547
2253.226563	25042.656250
2252.240234	24879.992188
2251.253906	25192.943359
2250.265625	24830.986328
2249.279297	24990.173828
2248.291016	24870.833984
2247.304688	25149.974609
2246.316406	25114.640625
2245.330078	24892.158203
2244.341797	24928.849609
2243.353516	25075.867188
2242.365234	24704.802734
2241.376953	24859.001953
2240.388672	25341.605469
2239.400391	25567.560547
2238.410156	24978.556641
2237.421875	24962.466797
2236.431641	24929.609375
2235.443359	25227.345703
2234.453125	25096.253906
2233.464844	25037.044922
2232.474609	24858.138672
2231.484375	24698.443359
2230.494141	24814.058594
2229.503906	25228.779297
2228.513672	24987.744141
2227.523438	25053.011719
2226.531250	24828.826172
2225.541016	25140.431641
2224.548828	25131.513672
2223.558594	24909.814453
2222.566406	24948.742188
2221.576172	24987.658203
2220.583984	25036.117188
2219.591797	25096.505859
2218.599609	24803.326172
2217.607422	24935.386719
2216.615234	24816.656250
2215.621094	24781.531250
2214.628906	25011.404297
2213.636719	24708.929688
2212.642578	25081.925781
2211.650391	24843.960938
2210.656250	24794.542969
2209.662109	24890.644531
2208.669922	24900.855469
2207.675781	25006.445313
2206.681641	24804.445313
2205.687500	24974.375000
2204.693359	25048.914063
2203.697266	24880.365234
2202.703125	25069.255859
2201.708984	25041.306641
2200.712891	24787.097656
2199.718750	24973.527344
2198.722656	24988.462891
2197.726563	24877.220703
2196.732422	25156.369141
2195.736328	25504.437500
2194.740234	25119.531250
2193.744141	24784.708984
2192.746094	25011.355469
2191.750000	25000.101563
2190.753906	24979.337891
2189.757813	25041.792969
2188.759766	24952.093750
2187.763672	25000.271484
2186.765625	25050.808594
2185.767578	24963.525391
2184.769531	24923.781250
2183.771484	25214.189453
2182.773438	25186.287109
2181.775391	24844.984375
2180.777344	24959.587891
2179.779297	24941.234375
2178.781250	25167.320313
2177.781250	25023.181641
2176.783203	25004.824219
2175.783203	24886.849609
2174.785156	24951.525391
2173.785156	24956.898438
2172.785156	25230.169922
2171.785156	24965.267578
2170.785156	24740.740234
2169.785156	24897.798828
2168.785156	24952.925781
2167.785156	25055.412109
2166.783203	25238.392578
2165.783203	25269.753906
2164.781250	24969.626953
2163.781250	24750.087891
2162.779297	24940.095703
2161.777344	25125.304688
2160.777344	24962.632813
2159.775391	25107.558594
2158.773438	25034.826172
2157.769531	25264.830078
2156.767578	25128.248047
2155.765625	25024.810547
2154.763672	25245.244141
2153.759766	25189.087891
2152.757813	25177.845703
2151.753906	25275.287109
2150.750000	25202.615234
2149.748047	24995.339844
2148.744141	24955.796875
2147.740234	24895.017578
2146.736328	25098.650391
2145.732422	25339.980469
2144.728516	24911.021484
2143.722656	24873.880859
2142.718750	24964.142578
2141.712891	25118.058594
2140.708984	25458.234375
2139.703125	25114.490234
2138.699219	24749.642578
2137.693359	24830.417969
2136.687500	25307.105469
2135.681641	25262.871094
2134.675781	24893.523438
2133.669922	25089.644531
2132.664063	25050.177734
2131.656250	25196.753906
2130.650391	25023.076172
2129.644531	24898.890625
2128.636719	25097.199219
2127.628906	24930.681641
2126.623047	25248.914063
2125.615234	25058.900391
2124.607422	25040.652344
2123.599609	25238.769531
2122.591797	25039.443359
2121.583984	25460.833984
2120.574219	25089.943359
2119.566406	25262.066406
2118.558594	25152.156250
2117.548828	25258.427734
2116.541016	25221.373047
2115.531250	25391.007813
2114.521484	25201.306641
2113.511719	25248.798828
2112.503906	25275.148438
2111.494141	25240.464844
2110.482422	25278.539063
2109.472656	25253.248047
2108.462891	25443.791016
2107.453125	24989.248047
2106.441406	25090.654297
2105.431641	25201.404297
2104.419922	25119.880859
2103.408203	25486.082031
2102.398438	24591.308594
2101.386719	24835.626953
2100.375000	25316.490234
2099.363281	25148.339844
2098.351563	25343.259766
2097.339844	25299.267578
2096.326172	25217.828125
2095.314453	25246.435547
2094.300781	25069.068359
2093.289063	25067.267578
2092.275391	25135.660156
2091.263672	25044.953125
2090.250000	25265.355469
2089.236328	25015.632813
2088.222656	25313.125000
2087.208984	25016.720703
2086.195313	25197.242188
2085.181641	25333.300781
2084.166016	24852.443359
2083.152344	24904.408203
2082.136719	25255.343750
2081.123047	25234.822266
2080.107422	25223.648438
2079.091797	24906.630859
2078.078125	25159.291016
2077.062500	24788.705078
2076.046875	25008.630859
2075.031250	25020.830078
2074.013672	25291.962891
2072.998047	25327.433594
2071.982422	25162.339844
2070.964844	25207.144531
2069.949219	25223.960938
2068.931641	24972.720703
2067.916016	24817.113281
2066.898438	24994.757813
2065.880859	24589.919922
2064.863281	24672.039063
2063.845703	24761.117188
2062.828125	25050.419922
2061.810547	25116.125000
2060.791016	24674.351563
2059.773438	24837.843750
2058.753906	25178.134766
2057.736328	24957.595703
2056.716797	24858.093750
2055.699219	25086.568359
2054.679688	24824.294922
2053.660156	24773.689453
2052.640625	24764.943359
2051.621094	24700.416016
2050.601563	25105.341797
2049.580078	25022.189453
2048.560547	24774.121094
2047.541016	25071.984375
2046.519531	24756.636719
2045.500000	24931.337891
2044.478516	24530.216797
2043.457031	24614.367188
2042.435547	24484.970703
2041.414063	24692.082031
2040.392578	24725.119141
2039.371094	24602.724609
2038.349609	24693.746094
2037.328125	24627.050781
2036.306641	24576.605469
2035.283203	24781.173828
2034.261719	24526.753906
2033.238281	24689.548828
2032.214844	24729.486328
2031.191406	24825.009766
2030.169922	24526.740234
2029.146484	24594.472656
2028.121094	24525.570313
2027.097656	24750.707031
2026.074219	24545.230469
2025.050781	24404.623047
2024.025391	24546.363281
2023.001953	24440.503906
2021.976563	24623.826172
2020.953125	24809.400391
2019.927734	24377.498047
2018.902344	24595.417969
2017.876953	24676.876953
2016.851563	24892.363281
2015.826172	24370.603516
2014.800781	24581.447266
2013.775391	24632.820313
2012.748047	24566.378906
2011.722656	24527.671875
2010.695313	24555.937500
2009.669922	24535.710938
2008.642578	24612.437500
2007.615234	24700.673828
2006.587891	24428.921875
2005.560547	24637.126953
2004.533203	24496.953125
2003.505859	24811.164063
2002.478516	24428.886719
2001.451172	24616.199219
2000.421875	24642.089844
1999.394531	24430.580078
1998.365234	24110.832031
1997.335938	24747.353516
1996.308594	24634.984375
1995.279297	24812.859375
1994.250000	24408.050781
1993.220703	24486.898438
1992.191406	24231.912109
1991.162109	24315.363281
1990.130859	24665.742188
1989.101563	24215.269531
1988.072266	24475.824219
1987.041016	24547.675781
1986.009766	24739.093750
1984.980469	24523.447266
1983.949219	24277.982422
1982.917969	24809.550781
1981.886719	24191.796875
1980.855469	24608.304688
1979.824219	24565.167969
1978.792969	24188.960938
1977.759766	24325.054688
1976.728516	24486.363281
1975.695313	24342.248047
1974.664063	24471.359375
1973.630859	24221.712891
1972.597656	24327.851563
1971.564453	24548.679688
1970.531250	24478.080078
1969.498047	24313.462891
1968.464844	24609.859375
1967.431641	24491.132813
1966.398438	24707.160156
1965.363281	24398.201172
1964.330078	24144.347656
1963.294922	24557.386719
1962.261719	24388.359375
1961.226563	24530.919922
1960.191406	24549.755859
1959.156250	24291.503906
1958.121094	24280.605469
1957.085938	24317.785156
1956.050781	24421.326172
1955.015625	24424.140625
1953.980469	24687.789063
1952.943359	24425.191406
1951.908203	24288.478516
1950.871094	24524.574219
1949.833984	24385.601563
1948.796875	24603.310547
1947.761719	24542.085938
1946.724609	24478.595703
1945.687500	24086.087891
1944.648438	24125.500000
1943.611328	24454.996094
1942.574219	24110.644531
1941.537109	24200.265625
1940.498047	24634.605469
1939.458984	24137.451172
1938.421875	24512.314453
1937.382813	24296.025391
1936.343750	24606.853516
1935.304688	24356.400391
1934.265625	24220.070313
1933.226563	24348.316406
1932.187500	24392.158203
1931.148438	24429.144531
1930.107422	24393.179688
1929.068359	24136.169922
1928.027344	24316.726563
1926.988281	24408.375000
1925.947266	24338.267578
1924.906250	24227.187500
1923.865234	24280.093750
1922.824219	24089.376953
1921.783203	24308.453125
1920.742188	24281.658203
1919.701172	24277.626953
1918.658203	23959.626953
1917.617188	24522.066406
1916.574219	24317.849609
1915.533203	24450.251953
1914.490234	24437.097656
1913.447266	24551.250000
1912.404297	24285.791016
1911.361328	24502.193359
1910.318359	24205.019531
1909.275391	24262.335938
1908.232422	24094.767578
1907.189453	24320.136719
1906.144531	24207.109375
1905.101563	24391.517578
1904.056641	24485.072266
1903.013672	24303.984375
1901.968750	24261.373047
1900.923828	24066.767578
1899.878906	24380.341797
1898.833984	23863.726563
1897.789063	24249.791016
1896.744141	24048.513672
1895.697266	23688.623047
1894.652344	23979.328125
1893.605469	23907.361328
1892.560547	24145.822266
1891.513672	24019.480469
1890.468750	23730.103516
1889.421875	24247.017578
1888.375000	23871.656250
1887.328125	23833.732422
1886.281250	24001.794922
1885.232422	24022.699219
1884.185547	23955.351563
1883.138672	23874.451172
1882.089844	24046.916016
1881.042969	24128.859375
1879.994141	24147.460938
1878.945313	24170.576172
1877.898438	23789.062500
1876.849609	24173.841797
1875.800781	23785.673828
1874.751953	24086.728516
1873.703125	23705.478516
1872.652344	24042.583984
1871.603516	23921.160156
1870.552734	23844.931641
1869.503906	23849.998047
1868.453125	23618.066406
1867.404297	23666.042969
1866.353516	23736.568359
1865.302734	23640.126953
1864.251953	23958.742188
1863.201172	23873.570313
1862.150391	23641.863281
1861.099609	23976.099609
1860.046875	23570.884766
1858.996094	23866.707031
1857.943359	23711.765625
1856.892578	23888.056641
1855.839844	23627.289063
1854.787109	23598.585938
1853.734375	23574.392578
1852.681641	23502.927734
1851.628906	23363.953125
1850.576172	23564.880859
1849.523438	23254.916016
1848.470703	23858.535156
1847.416016	23798.324219
1846.363281	23681.904297
1845.308594	23644.232422
1844.253906	23718.994141
1843.201172	23510.470703
1842.146484	23666.146484
1841.091797	23621.755859
1840.037109	23154.951172
1838.982422	23229.726563
1837.927734	23385.341797
1836.871094	23617.263672
1835.816406	23586.386719
1834.759766	23943.921875
1833.705078	23410.181641
1832.648438	23460.150391
1831.591797	23716.544922
1830.537109	23566.763672
1829.480469	23325.058594
1828.423828	23664.332031
1827.365234	23424.931641
1826.308594	23542.105469
1825.251953	23529.218750
1824.195313	23489.439453
1823.136719	23541.552734
1822.078125	23409.917969
1821.021484	23509.070313
1819.962891	23473.796875
1818.904297	23140.683594
1817.845703	23244.306641
1816.787109	23424.013672
1815.728516	23532.031250
1814.669922	23387.117188
1813.611328	23548.806641
1812.550781	23542.646484
1811.492188	23245.693359
1810.431641	23226.166016
1809.373047	23459.328125
1808.312500	23721.476563
1807.251953	23558.810547
1806.191406	23259.863281
1805.130859	23336.435547
1804.070313	23328.080078
1803.009766	23509.607422
1801.949219	23081.318359
1800.886719	23104.269531
1799.826172	23491.158203
1798.763672	23418.039063
1797.703125	23536.898438
1796.640625	23499.501953
1795.578125	23426.416016
1794.515625	23422.511719
1793.453125	23452.066406
1792.390625	23169.384766
1791.328125	23132.074219
1790.263672	23605.320313
1789.201172	23153.341797
1788.138672	23434.755859
1787.074219	23337.259766
1786.009766	23282.126953
1784.947266	22930.742188
1783.882813	23539.402344
1782.818359	23441.951172
1781.753906	22983.843750
1780.689453	23064.603516
1779.625000	23356.779297
1778.558594	23317.279297
1777.494141	23155.416016
1776.429688	23267.234375
1775.363281	23341.203125
1774.296875	23143.833984
1773.232422	23346.759766
1772.166016	23585.187500
1771.099609	23247.839844
1770.033203	23163.957031
1768.966797	23388.960938
1767.900391	23269.535156
1766.832031	23272.316406
1765.765625	23206.250000
1764.699219	23082.468750
1763.630859	23071.958984
1762.562500	23183.539063
1761.496094	23068.699219
1760.427734	22718.677734
1759.359375	23316.152344
1758.291016	23163.634766
1757.222656	23117.628906
1756.154297	23220.214844
1755.083984	23351.589844
1754.015625	23201.380859
1752.945313	23108.851563
1751.876953	23151.533203
1750.806641	23019.156250
1749.736328	22756.119141
1748.667969	23339.291016
1747.597656	22930.121094
1746.527344	23234.074219
1745.457031	23150.498047
1744.384766	23235.173828
1743.314453	22952.439453
1742.244141	23123.416016
1741.171875	22843.005859
1740.101563	23036.064453
1739.029297	23076.451172
1737.957031	23103.556641
1736.884766	22785.748047
1735.812500	22890.259766
1734.740234	22996.947266
1733.667969	22716.880859
1732.595703	23115.207031
1731.523438	22998.683594
1730.449219	22994.843750
1729.376953	22876.169922
1728.302734	22697.919922
1727.230469	22672.052734
1726.156250	23014.800781
1725.082031	23189.712891
1724.007813	22742.333984
1722.933594	22848.841797
1721.859375	22986.193359
1720.785156	22510.400391
1719.710938	22634.531250
1718.634766	22826.964844
1717.560547	22911.322266
1716.484375	22900.882813
1715.408203	22919.091797
1714.333984	22723.585938
1713.257813	22605.242188
1712.181641	22773.255859
1711.105469	22661.548828
1710.029297	22770.048828
1708.951172	22614.351563
1707.875000	22595.166016
1706.798828	22426.343750
1705.720703	22189.371094
1704.644531	22544.240234
1703.566406	22577.865234
1702.488281	22607.078125
1701.410156	22321.857422
1700.332031	22357.697266
1699.253906	22580.357422
1698.175781	22783.162109
1697.097656	22331.105469
1696.017578	22463.582031
1694.939453	22308.263672
1693.859375	22493.406250
1692.781250	22382.048828
1691.701172	22340.984375
1690.621094	22598.464844
1689.541016	22449.833984
1688.462891	22408.775391
1687.380859	22345.791016
1686.300781	22067.851563
1685.220703	22114.605469
1684.140625	22444.226563
1683.058594	22276.033203
1681.978516	22300.804688
1680.896484	22093.238281
1679.814453	22295.537109
1678.734375	22302.763672
1677.652344	22456.761719
1676.570313	22260.255859
1675.488281	22341.941406
1674.404297	22366.667969
1673.322266	22452.683594
1672.240234	22313.218750
1671.156250	22305.107422
1670.074219	22146.019531
1668.990234	22133.562500
1667.906250	22307.037109
1666.822266	22331.736328
1665.738281	22131.199219
1664.654297	22249.929688
1663.570313	22016.681641
1662.486328	22106.976563
1661.402344	21987.460938
1660.316406	22280.917969
1659.232422	21923.306641
1658.146484	22063.787109
1657.062500	22178.015625
1655.976563	22060.767578
1654.890625	21814.761719
1653.804688	22083.939453
1652.718750	22001.679688
1651.632813	22100.546875
1650.546875	22064.123047
1649.458984	22121.501953
1648.373047	21801.580078
1647.285156	22135.898438
1646.199219	21975.226563
1645.111328	21997.703125
1644.023438	22131.318359
1642.937500	22073.136719
1641.849609	21932.187500
1640.759766	21852.275391
1639.671875	21881.283203
1638.583984	21975.607422
1637.496094	21856.537109
1636.406250	21733.152344
1635.318359	21801.333984
1634.228516	22019.640625
1633.138672	21850.597656
1632.050781	22042.718750
1630.960938	21860.677734
1629.871094	22000.539063
1628.781250	21849.003906
1627.689453	21780.126953
1626.599609	21841.683594
1625.509766	21679.382813
1624.417969	21703.996094
1623.328125	22021.878906
1622.236328	21735.820313
1621.144531	21688.744141
1620.052734	21793.675781
1618.960938	21629.371094
1617.869141	22014.285156
1616.777344	21991.062500
1615.685547	22000.396484
1614.593750	21747.212891
1613.500000	21884.562500
1612.408203	21924.269531
1611.314453	21805.667969
1610.222656	21563.525391
1609.128906	21624.941406
1608.035156	21556.296875
1606.941406	21648.029297
1605.847656	21739.730469
1604.753906	21575.783203
1603.658203	21619.814453
1602.564453	21637.843750
1601.470703	21785.775391
1600.375000	21769.132813
1599.281250	21774.140625
1598.185547	21709.894531
1597.089844	21507.193359
1595.994141	21486.279297
1594.898438	21634.083984
1593.802734	21671.544922
1592.707031	21540.335938
1591.609375	21407.009766
1590.513672	21450.972656
1589.417969	21674.294922
1588.320313	21484.830078
1587.222656	21347.279297
1586.126953	21410.660156
1585.029297	21236.449219
1583.931641	21414.271484
1582.833984	21317.841797
1581.736328	21748.148438
1580.636719	21554.572266
1579.539063	21421.480469
1578.441406	21527.919922
1577.341797	21623.537109
1576.244141	21509.910156
1575.144531	21398.478516
1574.044922	21384.105469
1572.945313	21389.138672
1571.845703	21616.173828
1570.746094	21506.949219
1569.646484	20900.039063
1568.546875	21432.947266
1567.445313	21336.730469
1566.345703	21098.410156
1565.244141	21437.226563
1564.144531	21676.896484
1563.042969	20995.228516
1561.941406	21271.476563
1560.839844	21183.986328
1559.738281	21180.429688
1558.636719	21004.791016
1557.535156	21192.671875
1556.431641	20974.082031
1555.330078	21037.208984
1554.228516	21100.312500
1553.125000	21113.960938
1552.021484	21282.324219
1550.917969	21121.908203
1549.816406	21288.064453
1548.712891	21116.960938
1547.609375	20898.671875
1546.503906	20890.867188
1545.400391	20771.435547
1544.296875	20991.164063
1543.191406	20998.367188
1542.087891	20866.101563
1540.982422	20757.478516
1539.876953	21028.537109
1538.773438	20956.378906
1537.667969	20860.656250
1536.562500	20987.923828
1535.457031	20791.486328
1534.349609	20957.296875
1533.244141	20833.781250
1532.138672	21110.929688
1531.031250	20698.257813
1529.925781	20645.519531
1528.818359	20879.732422
1527.710938	20871.941406
1526.603516	20778.527344
1525.496094	20691.566406
1524.388672	20769.402344
1523.281250	20723.121094
1522.173828	20706.800781
1521.064453	20692.625000
1519.957031	20894.433594
1518.847656	20730.566406
1517.740234	20778.384766
1516.630859	20738.556641
1515.521484	20658.138672
1514.412109	20485.871094
1513.302734	20702.458984
1512.193359	20705.384766
1511.083984	20682.683594
1509.974609	20529.742188
1508.863281	20434.492188
1507.753906	20616.751953
1506.642578	20478.835938
1505.531250	20556.472656
1504.421875	20559.414063
1503.310547	20489.832031
1502.199219	20693.251953
1501.087891	20408.306641
1499.976563	20537.052734
1498.863281	20584.755859
1497.751953	20672.935547
1496.638672	20326.386719
1495.527344	20233.484375
1494.414063	20240.728516
1493.300781	20522.714844
1492.189453	20336.130859
1491.076172	19872.826172
1489.962891	20359.087891
1488.849609	20442.923828
1487.734375	20450.121094
1486.621094	20148.808594
1485.507813	20245.400391
1484.392578	20269.640625
1483.277344	20221.570313
1482.164063	20264.943359
1481.048828	20074.455078
1479.933594	20307.005859
1478.818359	20295.085938
1477.703125	20374.535156
1476.587891	20241.515625
1475.472656	20063.933594
1474.355469	19984.099609
1473.240234	20360.814453
1472.123047	20359.507813
1471.005859	20283.910156
1469.890625	20134.056641
1468.773438	20245.248047
1467.656250	20144.246094
1466.539063	20106.914063
1465.421875	20082.318359
1464.302734	20263.417969
1463.185547	20495.339844
1462.068359	20150.601563
1460.949219	20030.638672
1459.830078	20181.957031
1458.712891	20265.421875
1457.593750	20272.599609
1456.474609	19959.957031
1455.355469	19973.535156
1454.236328	20279.291016
1453.117188	20004.908203
1451.996094	19969.787109
1450.876953	20150.531250
1449.755859	19798.019531
1448.636719	20082.390625
1447.515625	19962.673828
1446.394531	20170.787109
1445.273438	19843.878906
1444.152344	19910.298828
1443.031250	20107.744141
1441.910156	19658.435547
1440.789063	20056.591797
1439.667969	20101.800781
1438.544922	19832.263672
1437.423828	19945.076172
1436.300781	20019.841797
1435.177734	19845.457031
1434.054688	19791.449219
1432.931641	20113.128906
1431.808594	19833.308594
1430.685547	19855.281250
1429.562500	20056.546875
1428.439453	19734.693359
1427.314453	19956.998047
1426.191406	19730.144531
1425.066406	19874.376953
1423.941406	20094.437500
1422.816406	20053.115234
1421.691406	19938.064453
1420.566406	19926.273438
1419.441406	19844.980469
1418.316406	19892.173828
1417.191406	19787.751953
1416.064453	19925.460938
1414.939453	19745.292969
1413.812500	19680.931641
1412.687500	19707.068359
1411.560547	19766.855469
1410.433594	19677.279297
1409.306641	19665.546875
1408.179688	19817.826172
1407.052734	19757.718750
1405.923828	19352.906250
1404.796875	19503.056641
1403.667969	19718.296875
1402.541016	19557.400391
1401.412109	19673.830078
1400.283203	19897.330078
1399.156250	19711.283203
1398.027344	19630.275391
1396.898438	19786.494141
1395.767578	19401.175781
1394.638672	19263.599609
1393.509766	19533.095703
1392.378906	19655.662109
1391.250000	19530.695313
1390.119141	19376.410156
1388.988281	19568.126953
1387.859375	19447.429688
1386.728516	19586.669922
1385.597656	19434.574219
1384.464844	19165.195313
1383.333984	19316.980469
1382.203125	19146.154297
1381.070313	19170.142578
1379.939453	19353.255859
1378.806641	19086.207031
1377.673828	19026.468750
1376.542969	19224.160156
1375.410156	19405.044922
1374.277344	19067.035156
1373.144531	19226.966797
1372.009766	19219.535156
1370.876953	19086.644531
1369.744141	19242.308594
1368.609375	19036.296875
1367.476563	19405.089844
1366.341797	18917.025391
1365.207031	19020.378906
1364.072266	18875.119141
1362.937500	19358.556641
1361.802734	19056.673828
1360.667969	18957.414063
1359.533203	19066.931641
1358.396484	18951.003906
1357.261719	18954.060547
1356.125000	19105.250000
1354.988281	18853.779297
1353.853516	18996.589844
1352.716797	18718.111328
1351.580078	18835.875000
1350.443359	18928.583984
1349.304688	18917.044922
1348.167969	18999.287109
1347.031250	18768.962891
1345.892578	18880.367188
1344.755859	18698.044922
1343.617188	18978.107422
1342.478516	18414.789063
1341.339844	18773.912109
1340.201172	18602.136719
1339.062500	18765.480469
1337.923828	18529.259766
1336.785156	18382.574219
1335.646484	18568.750000
1334.505859	18650.876953
1333.365234	18778.720703
1332.226563	18528.140625
1331.085938	18867.984375
1329.945313	18623.707031
1328.804688	18558.216797
1327.664063	18542.611328
1326.523438	18628.792969
1325.382813	18465.718750
1324.240234	18369.148438
1323.099609	18378.496094
1321.957031	18284.048828
1320.816406	18467.748047
1319.673828	18508.199219
1318.531250	18642.001953
1317.388672	18522.677734
1316.246094	18500.875000
1315.103516	18439.677734
1313.960938	18455.214844
1312.816406	18391.972656
1311.673828	18625.144531
1310.529297	18479.000000
1309.386719	18469.654297
1308.242188	18302.867188
1307.097656	18223.128906
1305.953125	18323.589844
1304.808594	18092.722656
1303.664063	18325.664063
1302.519531	18227.345703
1301.375000	18302.898438
1300.228516	18428.087891
1299.083984	18164.292969
1297.937500	18390.816406
1296.791016	18137.458984
1295.644531	18401.126953
1294.498047	18433.156250
1293.351563	18287.404297
1292.205078	18288.439453
1291.058594	18155.158203
1289.912109	18259.515625
1288.763672	18235.763672
1287.617188	18133.537109
1286.468750	17998.306641
1285.320313	18119.132813
1284.173828	18219.275391
1283.025391	18061.392578
1281.876953	17969.597656
1280.726563	18007.816406
1279.578125	17788.162109
1278.429688	18001.710938
1277.279297	17778.005859
1276.130859	18230.654297
1274.980469	17986.371094
1273.832031	18160.578125
1272.681641	18054.460938
1271.531250	17973.101563
1270.380859	17957.693359
1269.230469	17913.455078
1268.078125	17716.833984
1266.927734	18043.275391
1265.777344	17840.521484
1264.625000	18096.845703
1263.474609	17840.644531
1262.322266	18199.761719
1261.169922	17962.144531
1260.017578	18092.796875
1258.865234	17701.033203
1257.712891	17586.994141
1256.560547	17769.039063
1255.406250	17813.302734
1254.253906	17526.664063
1253.099609	17790.818359
1251.947266	17796.017578
1250.792969	17850.513672
1249.638672	17631.835938
1248.484375	17649.378906
1247.330078	17759.302734
1246.175781	17532.539063
1245.021484	17718.384766
1243.867188	17637.398438
1242.710938	17681.595703
1241.556641	17543.203125
1240.400391	17650.980469
1239.244141	17547.501953
1238.087891	17575.277344
1236.933594	17562.042969
1235.775391	17329.503906
1234.619141	17533.539063
1233.462891	17682.181641
1232.306641	17453.835938
1231.148438	17473.402344
1229.992188	17449.957031
1228.833984	17387.615234
1227.675781	17546.388672
1226.519531	17267.085938
1225.361328	17493.359375
1224.203125	17611.111328
1223.042969	17454.685547
1221.884766	17142.857422
1220.726563	17647.128906
1219.566406	17274.033203
1218.408203	17267.009766
1217.248047	17435.775391
1216.089844	17551.347656
1214.929688	17413.503906
1213.769531	17163.341797
1212.609375	17352.435547
1211.449219	17120.748047
1210.287109	17121.921875
1209.126953	17031.222656
1207.964844	17216.125000
1206.804688	17356.064453
1205.642578	17089.878906
1204.482422	16999.244141
1203.320313	16939.238281
1202.158203	16875.171875
1200.996094	16802.970703
1199.832031	16955.066406
1198.669922	17052.070313
1197.507813	16855.546875
1196.343750	16832.302734
1195.181641	16935.390625
1194.017578	17195.298828
1192.853516	16801.314453
1191.691406	16877.878906
1190.527344	16952.378906
1189.363281	16833.458984
1188.197266	16814.312500
1187.033203	16839.943359
1185.869141	16725.171875
1184.703125	16602.300781
1183.539063	16760.162109
1182.373047	16895.599609
1181.207031	16687.361328
1180.041016	16623.535156
1178.875000	16785.347656
1177.708984	16823.138672
1176.542969	16917.808594
1175.376953	16780.845703
1174.208984	16400.181641
1173.042969	16557.830078
1171.875000	17009.853516
1170.708984	16505.501953
1169.541016	16715.826172
1168.373047	16542.503906
1167.205078	16584.330078
1166.037109	16770.187500
1164.869141	16866.726563
1163.699219	16539.355469
1162.531250	16589.263672
1161.361328	16454.656250
1160.193359	16646.455078
1159.023438	16580.792969
1157.853516	16509.072266
1156.683594	16571.095703
1155.513672	16501.425781
1154.343750	16421.652344
1153.173828	16390.505859
1152.003906	16211.567383
1150.832031	16510.431641
1149.662109	16556.195313
1148.490234	16367.201172
1147.318359	16356.321289
1146.146484	16325.213867
1144.974609	16286.026367
1143.802734	16370.209961
1142.630859	16189.492188
1141.458984	16346.438477
1140.287109	16224.401367
1139.113281	16255.992188
1137.941406	16463.359375
1136.767578	16496.917969
1135.593750	16479.968750
1134.419922	16390.320313
1133.246094	16129.075195
1132.072266	16275.719727
1130.898438	16034.765625
1129.724609	16177.338867
1128.550781	16301.702148
1127.375000	16331.203125
1126.201172	16213.445313
1125.025391	16200.597656
1123.849609	16292.607422
1122.673828	16082.175781
1121.498047	15936.317383
1120.322266	16102.892578
1119.146484	16255.305664
1117.970703	16302.901367
1116.792969	16243.719727
1115.617188	16035.521484
1114.439453	16115.347656
1113.261719	16209.239258
1112.085938	16063.553711
1110.908203	16219.812500
1109.730469	16003.744141
1108.552734	16013.085938
1107.373047	16058.633789
1106.195313	15848.734375
1105.017578	15944.566406
1103.837891	16006.185547
1102.658203	15854.697266
1101.480469	15936.408203
1100.300781	15971.871094
1099.121094	15750.143555
1097.941406	15998.563477
1096.761719	15935.578125
1095.580078	16019.210938
1094.400391	16014.469727
1093.220703	15690.539063
1092.039063	15984.918945
1090.857422	15847.735352
1089.677734	15664.449219
1088.496094	15816.247070
1087.314453	15959.969727
1086.132813	15644.397461
1084.951172	16062.796875
1083.767578	15703.208984
1082.585938	15750.638672
1081.402344	15864.185547
1080.220703	15793.350586
1079.037109	15674.458984
1077.853516	15695.819336
1076.669922	15639.066406
1075.486328	15824.617188
1074.302734	15709.802734
1073.119141	15991.357422
1071.935547	16214.776367
1070.750000	16051.928711
1069.566406	15913.143555
1068.380859	16096.454102
1067.197266	15869.708984
1066.011719	15751.020508
1064.826172	15882.281250
1063.640625	15605.713867
1062.455078	15605.046875
1061.267578	15254.684570
1060.082031	15312.015625
1058.894531	15389.302734
1057.708984	15528.476563
1056.521484	15306.166016
1055.333984	15561.105469
1054.148438	15237.056641
1052.960938	15366.180664
1051.773438	15427.411133
1050.583984	15492.611328
1049.396484	15348.329102
1048.208984	15104.371094
1047.019531	15221.439453
1045.832031	15284.633789
1044.642578	14931.168945
1043.453125	15082.087891
1042.263672	15306.688477
1041.074219	15142.682617
1039.884766	15271.574219
1038.695313	15151.448242
1037.503906	15232.498047
1036.314453	15128.347656
1035.125000	14924.694336
1033.933594	15119.193359
1032.742188	15056.905273
1031.550781	15155.807617
1030.359375	15240.749023
1029.167969	14997.466797
1027.976563	14975.014648
1026.785156	14980.406250
1025.591797	14983.808594
1024.400391	14983.232422
1023.207031	14887.263672
1022.015625	14944.328125
1020.822266	14904.024414
1019.628906	14784.280273
1018.435547	15091.566406
1017.242188	14914.246094
1016.048828	14971.253906
1014.853516	15040.151367
1013.660156	14962.161133
1012.464844	14943.726563
1011.271484	14933.233398
1010.076172	15099.285156
1008.880859	14977.704102
1007.685547	14782.795898
1006.490234	14867.500000
1005.294922	14966.049805
1004.099609	14737.549805
1002.904297	14822.215820
1001.707031	14653.253906
1000.509766	14712.153320
999.314453	14915.613281
998.117188	14732.859375
996.919922	15019.399414
995.722656	14486.309570
994.525391	14778.730469
993.328125	14851.396484
992.130859	14643.086914
990.931641	14705.859375
989.734375	14663.783203
988.535156	14578.216797
987.335938	14510.472656
986.136719	14826.257813
984.939453	14713.034180
983.738281	14763.870117
982.539063	14731.703125
981.339844	14361.740234
980.140625	14489.638672
978.939453	14635.266602
977.740234	14796.639648
976.539063	14622.355469
975.337891	14538.923828
974.136719	14459.467773
972.935547	14537.887695
971.734375	14493.967773
970.533203	14807.073242
969.332031	14481.112305
968.128906	14370.182617
966.927734	14708.775391
965.724609	14481.550781
964.523438	14585.488281
963.320313	14795.791992
962.117188	14432.733398
960.914063	14487.380859
959.710938	14581.397461
958.505859	14569.051758
957.302734	14222.027344
956.097656	14373.123047
954.894531	14299.808594
953.689453	14368.193359
952.484375	14208.339844
951.281250	14402.606445
950.076172	14482.737305
948.869141	14370.136719
947.664063	14237.915039
946.458984	14380.933594
945.253906	14299.852539
944.046875	14324.909180
942.839844	14357.815430
941.634766	14321.958984
940.427734	14354.853516
939.220703	14044.095703
938.013672	14106.475586
936.806641	14268.946289
935.597656	14136.962891
934.390625	14148.272461
933.183594	14214.513672
931.974609	14339.581055
930.765625	14201.790039
929.556641	14426.824219
928.349609	14261.615234
927.140625	14039.615234
925.929688	14203.800781
924.720703	14009.320313
923.511719	14124.471680
922.300781	14149.472656
921.091797	14164.669922
919.880859	14054.533203
918.669922	14085.405273
917.460938	13955.742188
916.250000	14084.482422
915.039063	14138.814453
913.826172	14091.384766
912.615234	13732.925781
911.404297	13935.938477
910.191406	14134.970703
908.980469	13899.868164
907.767578	13961.992188
906.554688	13945.912109
905.341797	13920.065430
904.128906	13943.074219
902.916016	13755.089844
901.703125	13828.902344
900.488281	13748.411133
899.275391	13988.166016
898.060547	13817.871094
896.847656	13774.506836
895.632813	13840.444336
894.417969	13613.674805
893.203125	13995.660156
891.988281	13634.352539
890.773438	13630.059570
889.556641	13727.160156
888.341797	13621.474609
887.125000	13617.183594
885.910156	13636.280273
884.693359	13591.068359
883.476563	13766.018555
882.259766	13522.115234
881.042969	13714.543945
879.826172	13527.202148
878.609375	13517.088867
877.390625	13734.721680
876.173828	13514.385742
874.955078	13632.705078
873.738281	13692.617188
872.519531	13610.509766
871.300781	13590.665039
870.082031	13518.324219
868.863281	13416.844727
867.642578	13412.592773
866.423828	13454.986328
865.205078	13627.558594
863.984375	13640.756836
862.763672	13461.640625
861.544922	13416.596680
860.324219	13565.751953
859.103516	13526.529297
857.882813	13584.377930
856.660156	13578.158203
855.439453	13529.249023
854.218750	13451.253906
852.996094	13460.578125
851.773438	13553.296875
850.552734	13580.051758
849.330078	13500.160156
848.107422	13649.040039
846.884766	13480.006836
845.662109	13481.561523
844.437500	13477.303711
843.214844	13608.647461
841.990234	13480.410156
840.767578	13358.025391
839.542969	13435.108398
838.318359	13562.496094
837.093750	13267.898438
835.869141	13563.629883
834.644531	13454.877930
833.419922	13475.774414
832.195313	13608.845703
830.968750	13608.435547
829.742188	13381.803711
828.517578	13472.291016
827.291016	13711.575195
826.064453	13392.281250
824.837891	13517.498047
823.611328	13559.601563
822.384766	13313.894531
821.156250	13120.414063
819.929688	13527.491211
818.701172	13467.245117
817.474609	13244.883789
816.246094	13472.252930
815.017578	13386.961914
813.789063	13326.779297
812.560547	13368.845703
811.332031	13383.897461
810.101563	13425.938477
808.873047	13176.859375
807.642578	13538.887695
806.414063	13418.995117
805.183594	13451.365234
803.953125	13269.879883
802.722656	13419.759766
801.492188	13417.446289
800.261719	13274.569336
799.031250	13568.759766
797.798828	13437.454102
796.568359	13415.890625
795.335938	13505.938477
794.103516	13124.607422
792.873047	13355.090820
791.640625	13450.870117
790.408203	13379.326172
789.173828	13188.609375
787.941406	13274.755859
786.708984	13295.528320
785.474609	13306.684570
784.242188	13548.382813
783.007813	13321.301758
781.773438	13424.632813
780.539063	13261.018555
779.304688	13101.298828
778.070313	13433.040039
776.835938	13446.075195
775.599609	13474.457031
774.365234	13410.737305
773.128906	13446.787109
771.894531	13319.801758
770.658203	13367.359375
769.421875	13399.561523
768.185547	13431.752930
766.949219	13235.859375
765.710938	13413.701172
764.474609	13179.559570
763.238281	13489.523438
762.000000	13418.245117
760.761719	13500.183594
759.525391	13545.716797
758.287109	13342.380859
757.048828	13380.268555
755.810547	13544.440430
754.570313	13639.676758
753.332031	13512.980469
752.093750	13485.782227
750.853516	13412.698242
749.613281	13502.154297
748.375000	13499.821289
747.134766	13409.569336
745.894531	13588.792969
744.654297	13372.455078
743.412109	13486.671875
742.171875	13507.260742
740.931641	13533.571289
739.689453	13682.067383
738.447266	13643.431641
737.207031	13818.577148
735.964844	13150.187500
734.722656	13420.755859
733.480469	13727.475586
732.238281	13719.380859
730.994141	13497.704102
729.751953	13583.077148
728.507813	13428.221680
727.265625	13768.980469
726.021484	13541.730469
724.777344	13522.240234
723.533203	13700.878906
722.289063	13490.898438
721.044922	13315.268555
719.800781	13451.958984
718.554688	13565.758789
717.310547	13702.357422
716.064453	13601.029297
714.818359	13427.432617
713.572266	13655.297852
712.326172	13641.523438
711.080078	13644.868164
709.833984	13634.901367
708.587891	13427.227539
707.339844	13578.863281
706.093750	13608.820313
704.845703	13718.570313
703.599609	13719.996094
702.351563	13525.779297
701.103516	13650.677734
699.855469	13466.034180
698.607422	13551.031250
697.357422	13715.718750
696.109375	13388.824219
694.859375	13538.302734
693.611328	13543.546875
692.361328	13467.227539
691.111328	13531.271484
689.861328	13621.839844
688.611328	13519.002930
687.361328	13518.557617
686.111328	13694.360352
684.859375	13595.353516
683.609375	13558.897461
682.357422	13624.739258
681.105469	13495.492188
679.855469	13565.108398
678.603516	13731.250977
677.351563	13700.480469
676.097656	13709.461914
674.845703	13873.600586
673.593750	13700.927734
672.339844	13721.252930
671.087891	13781.285156
669.833984	13718.388672
668.580078	13886.162109
667.326172	13690.952148
666.072266	13853.000977
664.818359	13775.017578
663.562500	13751.847656
662.308594	13942.134766
661.054688	13879.283203
659.798828	14061.927734
658.542969	13823.497070
657.287109	13990.986328
656.031250	13969.687500
654.775391	13976.700195
653.519531	14112.000977
652.263672	14218.959961
651.005859	13944.914063
649.750000	14099.003906
648.492188	14155.004883
647.236328	14243.029297
645.978516	14300.869141
644.720703	14239.973633
643.462891	14224.315430
642.205078	14150.268555
640.945313	14273.999023
639.687500	14126.529297
638.427734	14462.965820
637.169922	14294.807617
635.910156	14143.644531
634.650391	14432.859375
633.390625	14513.136719
632.130859	14235.981445
630.871094	14321.906250
629.611328	14276.170898
628.349609	14228.571289
627.089844	14209.183594
625.828125	14191.681641
624.566406	14149.756836
623.304688	14216.816406
622.042969	14300.757813
620.781250	14176.196289
619.519531	14124.912109
618.257813	14034.217773
616.994141	13964.204102
615.732422	13914.858398
614.468750	14116.981445
613.205078	14001.959961
611.943359	13855.086914
610.679688	13798.291016
609.416016	13842.774414
608.150391	13785.999023
606.886719	13691.750977
605.623047	13698.744141
604.357422	13643.895508
603.091797	13564.708984
601.828125	13536.126953
600.562500	13595.582031
599.296875	13578.239258
598.031250	13560.902344
596.763672	13698.942383
595.498047	13447.635742
594.232422	13340.505859
592.964844	13272.703125
591.697266	13324.645508
590.431641	13412.105469
589.164063	13196.594727
587.896484	13052.206055
586.628906	13175.183594
585.359375	13182.238281
584.091797	13215.452148
582.822266	13241.180664
581.554688	13266.899414
580.285156	13034.863281
579.015625	13157.712891
577.746094	13153.557617
576.476563	12983.262695
575.207031	12960.474609
573.937500	12997.409180
572.667969	12965.295898
571.396484	12707.474609
570.126953	12944.000977
568.855469	12865.291992
567.583984	12917.125000
566.312500	12756.424805
565.041016	12918.222656
563.769531	12807.891602
562.498047	12746.041992
561.224609	12898.441406
559.953125	12592.604492
558.679688	12744.976563
557.406250	12554.708008
556.134766	12599.062500
554.861328	12656.429688
553.587891	12512.797852
552.312500	12583.183594
551.039063	12434.032227
549.765625	12307.251953
548.490234	12351.599609
547.216797	12325.279297
545.941406	12326.851563
544.666016	12365.595703
543.390625	12348.576172
542.115234	12216.366211
540.839844	12269.969727
539.562500	12377.417969
538.287109	12248.984375
537.009766	12296.982422
535.734375	12209.447266
534.457031	12040.275391
533.179688	11919.411133
531.902344	12386.754883
530.625000	12204.653320
529.347656	12399.133789
528.068359	12039.065430
526.791016	12135.236328
525.511719	12168.344727
524.234375	12284.847656
522.955078	12151.132813
521.675781	12258.333008
520.396484	12217.294922
519.117188	12152.191406
517.837891	12305.629883
516.556641	12496.045898
515.277344	12516.083008
513.996094	12565.726563
512.714844	12641.260742
511.435547	12644.607422
510.154297	12562.856445
508.873047	12632.801758
507.589844	12776.692383
506.308594	12977.850586
505.027344	12920.128906
503.744141	13204.365234
502.462891	13287.070313
501.179688	12907.829102
499.896484	13047.824219
498.613281	12866.386719
497.330078	12830.902344
496.046875	13044.691406
494.761719	12780.276367
493.478516	12702.372070
492.195313	12792.426758
490.910156	12887.985352
489.625000	12404.251953
488.339844	12462.954102
487.054688	12637.816406
485.769531	12394.073242
484.484375	12397.440430
483.197266	12489.279297
481.912109	12280.701172
480.625000	12385.424805
479.339844	12558.272461
478.052734	12325.845703
476.765625	12375.257813
475.478516	12212.911133
474.191406	12407.756836
472.904297	12366.938477
471.615234	12458.633789
470.328125	12312.942383
469.039063	12334.708008
467.750000	12542.236328
466.462891	12538.207031
465.173828	12405.472656
463.884766	12690.087891
462.593750	12597.809570
461.304688	12376.922852
460.015625	12569.523438
458.724609	12260.539063
457.433594	12337.377930
456.144531	12247.075195
454.853516	12096.211914
453.562500	12193.230469
452.271484	12011.225586
450.978516	11910.030273
449.687500	11814.374023
448.396484	11764.613281
447.103516	11680.019531
445.810547	11775.172852
444.519531	11448.580078
443.226563	11318.254883
441.933594	11389.592773
440.638672	11341.788086
439.345703	11414.927734
438.052734	11368.965820
436.757813	11504.349609
435.464844	11374.148438
434.169922	11245.823242
432.875000	11472.688477
431.580078	11283.989258
430.285156	11309.466797
428.990234	11287.362305
427.695313	11195.750000
426.398438	11334.628906
425.103516	11217.437500
423.806641	11250.215820
422.509766	11198.889648
421.212891	11312.080078
419.916016	11275.380859
418.619141	11193.014648
417.322266	11229.419922
416.025391	11327.912109
414.726563	11384.368164
413.429688	11362.291992
412.130859	11345.700195
410.832031	11473.305664
409.533203	11447.574219
408.234375	11646.274414
406.935547	11529.308594
405.636719	11613.016602
404.335938	11559.922852
403.037109	11618.068359
401.736328	11661.609375
400.435547	11723.361328
399.134766	11692.152344
397.833984	11746.587891
396.533203	11622.477539
395.232422	11773.439453
393.931641	11634.797852
392.628906	11630.940430
391.328125	11865.559570
390.025391	11645.068359
388.722656	11715.821289
387.419922	11648.268555
386.117188	11584.377930
384.814453	11629.638672
383.511719	11827.638672
382.207031	11714.657227
380.904297	11765.323242
379.599609	11732.364258
378.296875	11719.405273
376.992188	11673.746094
375.687500	11989.607422
374.382813	11938.466797
373.076172	12168.819336
371.771484	12099.507813
370.466797	12073.789063
369.160156	12400.190430
367.853516	12432.497070
366.548828	12511.964844
365.242188	12761.926758
363.935547	12690.767578
362.628906	12811.856445
361.320313	12905.706055
360.013672	12970.516602
358.705078	13058.866211
357.398438	13009.460938
356.089844	12887.598633
354.781250	13019.391602
353.472656	13064.200195
352.164063	12889.875000
350.855469	12733.716797
349.546875	12613.817383
348.236328	12682.193359
346.927734	12368.714844
345.617188	12395.494141
344.306641	12181.669922
342.996094	11969.727539
341.685547	11916.994141
340.375000	11779.301758
339.064453	11833.274414
337.753906	11813.125000
336.441406	11628.537109
335.130859	11657.211914
333.818359	11584.714844
332.505859	11669.375977
331.193359	11605.930664
329.880859	11609.310547
328.568359	11883.464844
327.253906	11904.841797
325.941406	12261.856445
324.626953	11922.314453
323.314453	12304.453125
322.000000	12295.079102
320.685547	12404.723633
319.371094	12389.924805
318.056641	12387.750000
316.742188	12464.876953
315.425781	12414.034180
314.111328	12476.714844
312.794922	12325.009766
311.478516	12520.961914
310.162109	12443.131836
308.845703	12509.362305
307.529297	12442.361328
306.212891	12315.990234
304.896484	12443.388672
303.578125	12696.683594
302.261719	12581.125977
300.943359	12537.549805
299.625000	12438.243164
298.306641	12551.123047
296.988281	12507.573242
295.669922	12636.576172
294.351563	12833.817383
293.033203	12766.882813
291.712891	12525.728516
290.392578	12580.999023
289.074219	12467.455078
287.753906	12427.560547
286.433594	12297.927734
285.113281	12083.986328
283.791016	11972.402344
282.470703	12099.472656
281.150391	12016.625000
279.828125	12068.316406
278.505859	11788.253906
277.185547	11816.659180
275.863281	11843.261719
274.541016	12059.830078
273.216797	12070.251953
271.894531	12175.624023
270.572266	12388.435547
269.248047	12497.295898
267.923828	12421.680664
266.601563	12696.996094
265.277344	12787.843750
263.953125	12953.825195
262.628906	12990.912109
261.302734	13079.869141
259.978516	13358.401367
258.654297	13368.570313
257.328125	13595.096680
256.001953	13784.000000
254.675781	13903.124023
253.349609	14197.348633
252.023438	14302.061523
250.697266	14256.666016
249.371094	14214.859375
248.042969	14215.928711
246.716797	14106.290039
245.388672	14030.609375
244.060547	13792.522461
242.732422	13345.712891
241.404297	13241.654297
240.076172	13148.336914
238.748047	12639.445313
237.417969	12259.136719
236.089844	11830.818359
234.759766	11445.437500
233.429688	11051.279297
232.101563	10798.049805
230.771484	10496.798828
229.439453	10085.199219
228.109375	10062.047852
226.779297	9656.012695
225.447266	9449.543945
224.117188	9211.103516
222.785156	9218.379883
221.453125	8976.504883
220.121094	8850.370117
218.789063	8612.201172
217.457031	8550.208008
216.125000	8401.094727
214.791016	8561.417969
213.458984	8143.913574
212.125000	8149.587891
210.791016	8253.001953
209.457031	8068.534668
208.123047	8173.702148
206.789063	7952.013184
205.455078	8094.457520
204.119141	8064.621094
202.785156	7958.458984
201.449219	8042.252441
200.113281	7895.314941
198.777344	7931.183105
197.441406	7842.857910
196.105469	7875.174805
194.769531	7811.717285
193.433594	7737.643555
192.095703	7876.326172
190.757813	7828.853027
189.421875	7761.903320
188.083984	7765.849121
186.746094	7684.761230
185.408203	7810.930664
184.070313	7765.280273
182.730469	7763.910156
181.392578	7813.876953
180.052734	7745.240234
178.712891	7865.977051
177.375000	7878.743164
176.035156	7856.124512
174.695313	7980.314453
173.353516	7879.876465
172.013672	7873.181152
170.673828	7850.578125
169.332031	7720.168945
167.990234	7653.422363
166.650391	7715.675781
165.308594	7735.511230
163.966797	7833.051758
162.625000	7709.822754
161.281250	7851.472168
159.939453	7745.935059
158.595703	7760.451660
157.253906	7603.792969
155.910156	7653.615234
154.566406	7602.870605
153.222656	7446.322266
151.878906	7423.846191
150.535156	7193.334961
149.189453	7230.844727
147.845703	7003.973145
146.500000	6962.206543
145.154297	6941.595703
143.810547	6794.163086
142.464844	6770.066895
141.117188	6677.303711
139.771484	6625.066406
138.425781	6468.991699
137.078125	6578.725098
135.732422	6706.016602
134.384766	6479.635742
133.037109	6474.972168
131.689453	6392.926270
130.341797	6372.453125
128.994141	6424.069336
127.646484	6449.299805
126.296875	6279.441895
124.949219	6239.673828
123.599609	6286.005371
122.250000	6248.005859
120.900391	6132.746094
119.550781	6131.661133
118.201172	6128.820801
116.851563	6087.364746
115.500000	5868.669434
114.150391	5707.955566
112.798828	5485.895508
111.447266	5195.506348
110.095703	4724.583496
108.744141	4295.909668
107.392578	3807.781494
106.041016	3268.994385
104.689453	2867.092773
103.335938	2330.414795
